Ewe/V	<I>/mA	
1.3781950E+000	0.000000000000000E+000
1.3768535E+000	0.000000000000000E+000
1.2308904E+000	-7.514446190728080E+000
1.2330450E+000	-7.061075547171305E-001
1.2363838E+000	-2.187998248559611E-001
1.2397424E+000	-9.993599802293862E-002
1.2430600E+000	-4.813564696703077E-002
1.2463901E+000	-1.871677928114174E-002
1.2497232E+000	6.136495755798999E-003
1.2530700E+000	1.484736687978000E-002
1.2563901E+000	2.441576890068708E-002
1.2597297E+000	3.186548214048379E-002
1.2630814E+000	3.826656163687936E-002
1.2664121E+000	4.340491054812180E-002
1.2697487E+000	4.798782878864816E-002
1.2730881E+000	5.142994082417007E-002
1.2764273E+000	5.513782635130871E-002
1.2797825E+000	5.803439103107561E-002
1.2830936E+000	6.021846742770826E-002
1.2864429E+000	6.260012823313625E-002
1.2897683E+000	6.477727253540921E-002
1.2931221E+000	6.627491557342990E-002
1.2964547E+000	6.799176331262125E-002
1.2997924E+000	6.960315021773122E-002
1.3031247E+000	7.119221702871381E-002
1.3064990E+000	7.232687750616140E-002
1.3098168E+000	7.350789925068546E-002
1.3131554E+000	7.456748930203072E-002
1.3165011E+000	7.525471297287267E-002
1.3198421E+000	7.662472186551350E-002
1.3231949E+000	7.757450735668447E-002
1.3265038E+000	7.821452446703780E-002
1.3298382E+000	7.919935599918104E-002
1.3331829E+000	7.983532636747798E-002
1.3365300E+000	8.088090241293991E-002
1.3398638E+000	8.200663488867310E-002
1.3432221E+000	8.324187764613256E-002
1.3465364E+000	8.408390751071695E-002
1.3498951E+000	8.553577322965955E-002
1.3532416E+000	8.670295500256886E-002
1.3565609E+000	8.804838358827573E-002
1.3598965E+000	8.983255481553054E-002
1.3632504E+000	9.288848435827535E-002
1.3665911E+000	9.655325337063747E-002
1.3699286E+000	9.659448871803011E-002
1.3732845E+000	9.844775574436465E-002
1.3766345E+000	1.017149018699747E-001
1.3799735E+000	1.039919784388015E-001
1.3832957E+000	1.078332699434514E-001
1.3866525E+000	1.125078794113829E-001
1.3899938E+000	1.167587140539572E-001
1.3933343E+000	1.228414078160163E-001
1.3966562E+000	1.290923383949962E-001
1.4000074E+000	1.366979059779403E-001
1.4033474E+000	1.458228347855832E-001
1.4066739E+000	1.565138903314436E-001
1.4099927E+000	1.693538746981689E-001
1.4133465E+000	1.844477803693866E-001
1.4166729E+000	2.017793087413227E-001
1.4200044E+000	2.233017159539390E-001
1.4233365E+000	2.566995875819900E-001
1.4266667E+000	2.829022008615985E-001
1.4300097E+000	3.176974926893501E-001
1.4333509E+000	3.581624505547856E-001
1.4366877E+000	4.066644278527400E-001
1.4400321E+000	4.782554765320688E-001
1.4433674E+000	5.343056671367510E-001
1.4466738E+000	6.113433083428177E-001
1.4500232E+000	7.077527580118725E-001
1.4533529E+000	8.102255386692434E-001
1.4567106E+000	9.305867938250891E-001
1.4600564E+000	1.070823567713658E+000
1.4634058E+000	1.220683527308299E+000
1.4667399E+000	1.394054541635383E+000
1.4700683E+000	1.589549731527121E+000
1.4734061E+000	1.807464294747213E+000
1.4767519E+000	2.048386909203494E+000
1.4800711E+000	2.310989525351410E+000
1.4834123E+000	2.609291056438140E+000
1.4867759E+000	2.923977912191781E+000
1.4900985E+000	3.270527084283081E+000
1.4934219E+000	3.653500959165385E+000
1.4967608E+000	4.058442611231349E+000
1.5001194E+000	4.499228888006094E+000
1.5034496E+000	4.968530972414769E+000
1.5067886E+000	5.475349030620798E+000
1.5101184E+000	6.005402643955080E+000
1.5134587E+000	6.590621358808953E+000
1.5168067E+000	7.199782506173847E+000
1.5201392E+000	7.846038464196852E+000
1.5234649E+000	8.524816443576782E+000
1.5267994E+000	9.261993119309835E+000
1.5301294E+000	1.002179971014027E+001
1.5334967E+000	1.085149750402314E+001
1.5368404E+000	1.171190065849707E+001
1.5402048E+000	1.260325144769602E+001
1.5435274E+000	1.354578809667217E+001
1.5468783E+000	1.453220878212218E+001
1.5501935E+000	1.556152764104149E+001
1.5535568E+000	1.663012528548279E+001
1.5568701E+000	1.776116159111514E+001
1.5602145E+000	1.895757751442534E+001
1.5635583E+000	2.018349085395239E+001
1.5668768E+000	2.148446601755245E+001
1.5702146E+000	2.286850117339549E+001
1.5735561E+000	2.430820543985186E+001
1.5768989E+000	2.581154961338001E+001
1.5802300E+000	2.738996331825693E+001
1.5835779E+000	2.900701477072664E+001
1.5869033E+000	3.068192680754586E+001
1.5902535E+000	3.248068125159773E+001
1.5935850E+000	3.431443406055287E+001
1.5969337E+000	3.619229579703602E+001
1.6002676E+000	3.821426469752106E+001
1.6036139E+000	4.025050313642097E+001
1.6069541E+000	4.236166342326220E+001
1.6102825E+000	4.460496897912289E+001
1.6136256E+000	4.687620080013568E+001
1.6169691E+000	4.929430011224336E+001
1.6203536E+000	5.171870825539960E+001
1.6236935E+000	5.426918632585989E+001
1.6270276E+000	5.684604302436708E+001
1.6303719E+000	5.950120651956081E+001
1.6337085E+000	6.218500428792208E+001
1.6370417E+000	6.497793747016976E+001
1.6403726E+000	6.779075610802492E+001
1.6437020E+000	7.068408389082981E+001
1.6470532E+000	7.360796287870875E+001
1.6503993E+000	7.707535299604956E+001
1.6537569E+000	8.056498949638012E+001
1.6570610E+000	8.389714508460497E+001
1.6604352E+000	8.726991046485909E+001
1.6637673E+000	9.066093722581809E+001
1.6670989E+000	9.389241076810924E+001
1.6704386E+000	9.722233065507339E+001
1.6737968E+000	1.007828059580128E+002
1.6771431E+000	1.044918562878659E+002
1.6804780E+000	1.083936462326885E+002
1.6838627E+000	1.127969248700069E+002
1.6871881E+000	1.165984747371099E+002
1.6905296E+000	1.203484338013989E+002
1.6938690E+000	1.244701807823694E+002
1.6972011E+000	1.287736180528950E+002
1.7005379E+000	1.327946757847656E+002
1.7038972E+000	1.364594389428109E+002
1.7072362E+000	1.399264258373200E+002
1.7105683E+000	1.435154918697508E+002
1.7139202E+000	1.476064586235461E+002
1.7172530E+000	1.519628747811981E+002
1.7205882E+000	1.560642196471085E+002
1.7239316E+000	1.596853968388107E+002
1.7272648E+000	1.636551487303689E+002
1.7306288E+000	1.672278046397360E+002
1.7339574E+000	1.704176002875454E+002
1.7373056E+000	1.740774046075192E+002
1.7406534E+000	1.774380690901712E+002
1.7439903E+000	1.809266402759881E+002
1.7473717E+000	1.843583472756600E+002
1.7507137E+000	1.869226743591403E+002
1.7540467E+000	1.911020943065491E+002
1.7574217E+000	1.944418518428304E+002
1.7607384E+000	1.969877012290553E+002
1.7640846E+000	1.999744316065216E+002
1.7674280E+000	2.025646209758612E+002
1.7707682E+000	2.064197486093012E+002
1.7741060E+000	2.097344239907013E+002
1.7774251E+000	2.117866464767203E+002
1.7808025E+000	2.149084731012927E+002
1.7841232E+000	2.177197306780899E+002
1.7874793E+000	2.205118166007442E+002
1.7908158E+000	2.225703213868501E+002
1.7941431E+000	2.246018569907164E+002
1.7974870E+000	2.262478376749500E+002
1.8008255E+000	2.307744114313932E+002
1.8041588E+000	2.345388757402716E+002
1.8075082E+000	2.364006186392309E+002
1.8108433E+000	2.379392110593010E+002
1.8141888E+000	2.393622090674776E+002
1.8175421E+000	2.411602563381498E+002
1.8208544E+000	2.426945357567828E+002
1.8241837E+000	2.454300941001820E+002
1.8275365E+000	2.467353216032378E+002
1.8308632E+000	2.495067107024374E+002
1.8342129E+000	2.507677533753977E+002
1.8375447E+000	2.521767185752437E+002
1.8408703E+000	2.532119836265138E+002
1.8442090E+000	2.549243991977537E+002
1.8475499E+000	2.570169057225509E+002
1.8498924E+000	2.583984751756343E+002
1.8507140E+000	2.594471004710476E+002