May 9, 2026   11:20:46
Linear Sweep Voltammetry
File: e:\xdq\20260509\ru\lsv-2-1.42-1.92-ir-1.545.txt
Data Source:  Experiment
Instrument Model:  CHI660E
Header: 
Note: 

Init E (V) = 1.42
Final E (V) = 1.92
Scan Rate (V/s) = 0.005
Sample Interval (V) = 0.001
Quiet Time (sec) = 2
Sensitivity (A/V) = 0.1
Comp R (ohm) = 1.5

Results:

Channel 1:

Potential/V, Current/A

1.420, 1.292e-3
1.421, 1.231e-3
1.422, 1.172e-3
1.423, 1.118e-3
1.424, 1.070e-3
1.425, 1.027e-3
1.426, 9.876e-4
1.427, 9.532e-4
1.428, 9.210e-4
1.429, 8.920e-4
1.430, 8.661e-4
1.431, 8.418e-4
1.432, 8.186e-4
1.433, 7.995e-4
1.434, 7.821e-4
1.435, 7.651e-4
1.436, 7.497e-4
1.437, 7.351e-4
1.438, 7.219e-4
1.439, 7.101e-4
1.440, 7.002e-4
1.441, 6.904e-4
1.442, 6.826e-4
1.443, 6.754e-4
1.444, 6.691e-4
1.445, 6.634e-4
1.446, 6.595e-4
1.447, 6.561e-4
1.448, 6.527e-4
1.449, 6.511e-4
1.450, 6.508e-4
1.451, 6.506e-4
1.452, 6.511e-4
1.453, 6.534e-4
1.454, 6.554e-4
1.455, 6.589e-4
1.456, 6.635e-4
1.457, 6.689e-4
1.458, 6.749e-4
1.459, 6.831e-4
1.460, 6.912e-4
1.461, 6.995e-4
1.462, 7.094e-4
1.463, 7.205e-4
1.464, 7.315e-4
1.465, 7.447e-4
1.466, 7.586e-4
1.467, 7.730e-4
1.468, 7.888e-4
1.469, 8.053e-4
1.470, 8.235e-4
1.471, 8.426e-4
1.472, 8.632e-4
1.473, 8.838e-4
1.474, 9.056e-4
1.475, 9.277e-4
1.476, 9.531e-4
1.477, 9.778e-4
1.478, 1.005e-3
1.479, 1.033e-3
1.480, 1.062e-3
1.481, 1.092e-3
1.482, 1.125e-3
1.483, 1.157e-3
1.484, 1.191e-3
1.485, 1.227e-3
1.486, 1.264e-3
1.487, 1.303e-3
1.488, 1.342e-3
1.489, 1.382e-3
1.490, 1.424e-3
1.491, 1.467e-3
1.492, 1.511e-3
1.493, 1.557e-3
1.494, 1.604e-3
1.495, 1.652e-3
1.496, 1.701e-3
1.497, 1.753e-3
1.498, 1.808e-3
1.499, 1.863e-3
1.500, 1.920e-3
1.501, 1.979e-3
1.502, 2.039e-3
1.503, 2.102e-3
1.504, 2.166e-3
1.505, 2.232e-3
1.506, 2.301e-3
1.507, 2.371e-3
1.508, 2.443e-3
1.509, 2.517e-3
1.510, 2.596e-3
1.511, 2.676e-3
1.512, 2.756e-3
1.513, 2.840e-3
1.514, 2.924e-3
1.515, 3.012e-3
1.516, 3.103e-3
1.517, 3.198e-3
1.518, 3.295e-3
1.519, 3.393e-3
1.520, 3.495e-3
1.521, 3.601e-3
1.522, 3.708e-3
1.523, 3.817e-3
1.524, 3.930e-3
1.525, 4.046e-3
1.526, 4.164e-3
1.527, 4.287e-3
1.528, 4.410e-3
1.529, 4.539e-3
1.530, 4.671e-3
1.531, 4.805e-3
1.532, 4.939e-3
1.533, 5.077e-3
1.534, 5.219e-3
1.535, 5.362e-3
1.536, 5.509e-3
1.537, 5.655e-3
1.538, 5.803e-3
1.539, 5.956e-3
1.540, 6.110e-3
1.541, 6.265e-3
1.542, 6.424e-3
1.543, 6.585e-3
1.544, 6.748e-3
1.545, 6.912e-3
1.546, 7.078e-3
1.547, 7.247e-3
1.548, 7.416e-3
1.549, 7.592e-3
1.550, 7.769e-3
1.551, 7.943e-3
1.552, 8.122e-3
1.553, 8.301e-3
1.554, 8.481e-3
1.555, 8.663e-3
1.556, 8.847e-3
1.557, 9.035e-3
1.558, 9.224e-3
1.559, 9.415e-3
1.560, 9.604e-3
1.561, 9.801e-3
1.562, 1.000e-2
1.563, 1.020e-2
1.564, 1.041e-2
1.565, 1.061e-2
1.566, 1.082e-2
1.567, 1.103e-2
1.568, 1.125e-2
1.569, 1.147e-2
1.570, 1.170e-2
1.571, 1.193e-2
1.572, 1.216e-2
1.573, 1.240e-2
1.574, 1.264e-2
1.575, 1.289e-2
1.576, 1.314e-2
1.577, 1.340e-2
1.578, 1.366e-2
1.579, 1.392e-2
1.580, 1.419e-2
1.581, 1.447e-2
1.582, 1.475e-2
1.583, 1.504e-2
1.584, 1.533e-2
1.585, 1.564e-2
1.586, 1.594e-2
1.587, 1.625e-2
1.588, 1.657e-2
1.589, 1.689e-2
1.590, 1.722e-2
1.591, 1.755e-2
1.592, 1.789e-2
1.593, 1.824e-2
1.594, 1.859e-2
1.595, 1.896e-2
1.596, 1.932e-2
1.597, 1.968e-2
1.598, 2.006e-2
1.599, 2.044e-2
1.600, 2.082e-2
1.601, 2.121e-2
1.602, 2.160e-2
1.603, 2.200e-2
1.604, 2.241e-2
1.605, 2.282e-2
1.606, 2.324e-2
1.607, 2.366e-2
1.608, 2.408e-2
1.609, 2.451e-2
1.610, 2.494e-2
1.611, 2.538e-2
1.612, 2.582e-2
1.613, 2.627e-2
1.614, 2.673e-2
1.615, 2.718e-2
1.616, 2.764e-2
1.617, 2.810e-2
1.618, 2.857e-2
1.619, 2.904e-2
1.620, 2.950e-2
1.621, 2.998e-2
1.622, 3.046e-2
1.623, 3.095e-2
1.624, 3.144e-2
1.625, 3.193e-2
1.626, 3.244e-2
1.627, 3.295e-2
1.628, 3.344e-2
1.629, 3.394e-2
1.630, 3.444e-2
1.631, 3.495e-2
1.632, 3.546e-2
1.633, 3.599e-2
1.634, 3.653e-2
1.635, 3.723e-2
1.636, 3.782e-2
1.637, 3.834e-2
1.638, 3.885e-2
1.639, 3.940e-2
1.640, 3.994e-2
1.641, 4.047e-2
1.642, 4.099e-2
1.643, 4.152e-2
1.644, 4.206e-2
1.645, 4.260e-2
1.646, 4.314e-2
1.647, 4.368e-2
1.648, 4.422e-2
1.649, 4.478e-2
1.650, 4.535e-2
1.651, 4.590e-2
1.652, 4.644e-2
1.653, 4.698e-2
1.654, 4.753e-2
1.655, 4.810e-2
1.656, 4.865e-2
1.657, 4.920e-2
1.658, 4.975e-2
1.659, 5.033e-2
1.660, 5.088e-2
1.661, 5.143e-2
1.662, 5.204e-2
1.663, 5.266e-2
1.664, 5.323e-2
1.665, 5.380e-2
1.666, 5.433e-2
1.667, 5.490e-2
1.668, 5.544e-2
1.669, 5.599e-2
1.670, 5.651e-2
1.671, 5.706e-2
1.672, 5.767e-2
1.673, 5.827e-2
1.674, 5.884e-2
1.675, 5.957e-2
1.676, 6.038e-2
1.677, 6.091e-2
1.678, 6.148e-2
1.679, 6.203e-2
1.680, 6.258e-2
1.681, 6.313e-2
1.682, 6.366e-2
1.683, 6.417e-2
1.684, 6.468e-2
1.685, 6.528e-2
1.686, 6.590e-2
1.687, 6.633e-2
1.688, 6.680e-2
1.689, 6.734e-2
1.690, 6.787e-2
1.691, 6.844e-2
1.692, 6.900e-2
1.693, 6.946e-2
1.694, 6.993e-2
1.695, 7.038e-2
1.696, 7.087e-2
1.697, 7.136e-2
1.698, 7.184e-2
1.699, 7.238e-2
1.700, 7.290e-2
1.701, 7.395e-2
1.702, 7.479e-2
1.703, 7.526e-2
1.704, 7.569e-2
1.705, 7.610e-2
1.706, 7.665e-2
1.707, 7.726e-2
1.708, 7.784e-2
1.709, 7.830e-2
1.710, 7.870e-2
1.711, 7.909e-2
1.712, 7.949e-2
1.713, 7.998e-2
1.714, 8.056e-2
1.715, 8.138e-2
1.716, 8.192e-2
1.717, 8.241e-2
1.718, 8.275e-2
1.719, 8.326e-2
1.720, 8.381e-2
1.721, 8.414e-2
1.722, 8.456e-2
1.723, 8.528e-2
1.724, 8.562e-2
1.725, 8.597e-2
1.726, 8.625e-2
1.727, 8.686e-2
1.728, 8.756e-2
1.729, 8.795e-2
1.730, 8.824e-2
1.731, 8.851e-2
1.732, 8.887e-2
1.733, 9.015e-2
1.734, 9.106e-2
1.735, 9.130e-2
1.736, 9.152e-2
1.737, 9.181e-2
1.738, 9.232e-2
1.739, 9.283e-2
1.740, 9.324e-2
1.741, 9.354e-2
1.742, 9.368e-2
1.743, 9.395e-2
1.744, 9.440e-2
1.745, 9.493e-2
1.746, 9.519e-2
1.747, 9.559e-2
1.748, 9.585e-2
1.749, 9.603e-2
1.750, 9.618e-2
1.751, 9.642e-2
1.752, 9.674e-2
1.753, 9.698e-2
1.754, 9.765e-2
1.755, 9.883e-2
1.756, 9.934e-2
1.757, 9.966e-2
1.758, 9.982e-2
1.759, 9.986e-2
1.760, 1.001e-1
1.761, 1.009e-1
1.762, 1.013e-1
1.763, 1.014e-1
1.764, 1.014e-1
1.765, 1.014e-1
1.766, 1.018e-1
1.767, 1.027e-1
1.768, 1.031e-1
1.769, 1.032e-1
1.770, 1.033e-1
1.771, 1.034e-1
1.772, 1.036e-1
1.773, 1.041e-1
1.774, 1.048e-1
1.775, 1.052e-1
1.776, 1.056e-1
1.777, 1.057e-1
1.778, 1.059e-1
1.779, 1.064e-1
1.780, 1.069e-1
1.781, 1.071e-1
1.782, 1.074e-1
1.783, 1.075e-1
1.784, 1.076e-1
1.785, 1.081e-1
1.786, 1.080e-1
1.787, 1.081e-1
1.788, 1.085e-1
1.789, 1.094e-1
1.790, 1.095e-1
1.791, 1.095e-1
1.792, 1.101e-1
1.793, 1.105e-1
1.794, 1.105e-1
1.795, 1.105e-1
1.796, 1.107e-1
1.797, 1.108e-1
1.798, 1.108e-1
1.799, 1.109e-1
1.800, 1.115e-1
1.801, 1.118e-1
1.802, 1.117e-1
1.803, 1.116e-1
1.804, 1.115e-1
1.805, 1.115e-1
1.806, 1.117e-1
1.807, 1.125e-1
1.808, 1.133e-1
1.809, 1.143e-1
1.810, 1.146e-1
1.811, 1.145e-1
1.812, 1.146e-1
1.813, 1.146e-1
1.814, 1.144e-1
1.815, 1.143e-1
1.816, 1.142e-1
1.817, 1.149e-1
1.818, 1.154e-1
1.819, 1.156e-1
1.820, 1.156e-1
1.821, 1.160e-1
1.822, 1.194e-1
1.823, 1.204e-1
1.824, 1.202e-1
1.825, 1.205e-1
1.826, 1.209e-1
1.827, 1.208e-1
1.828, 1.207e-1
1.829, 1.205e-1
1.830, 1.205e-1
1.831, 1.204e-1
1.832, 1.204e-1
1.833, 1.202e-1
1.834, 1.201e-1
1.835, 1.201e-1
1.836, 1.199e-1
1.837, 1.199e-1
1.838, 1.199e-1
1.839, 1.204e-1
1.840, 1.220e-1
1.841, 1.219e-1
1.842, 1.215e-1
1.843, 1.213e-1
1.844, 1.211e-1
1.845, 1.211e-1
1.846, 1.212e-1
1.847, 1.215e-1
1.848, 1.217e-1
1.849, 1.216e-1
1.850, 1.221e-1
1.851, 1.218e-1
1.852, 1.216e-1
1.853, 1.214e-1
1.854, 1.212e-1
1.855, 1.212e-1
1.856, 1.214e-1
1.857, 1.216e-1
1.858, 1.223e-1
1.859, 1.234e-1
1.860, 1.235e-1
1.861, 1.232e-1
1.862, 1.230e-1
1.863, 1.229e-1
1.864, 1.229e-1
1.865, 1.227e-1
1.866, 1.224e-1
1.867, 1.224e-1
1.868, 1.228e-1
1.869, 1.227e-1
1.870, 1.225e-1
1.871, 1.228e-1
1.872, 1.237e-1
1.873, 1.235e-1
1.874, 1.233e-1
1.875, 1.231e-1
1.876, 1.229e-1
1.877, 1.230e-1
1.878, 1.250e-1
1.879, 1.254e-1
1.880, 1.251e-1
1.881, 1.250e-1
1.882, 1.248e-1
1.883, 1.246e-1
1.884, 1.244e-1
1.885, 1.243e-1
1.886, 1.250e-1
1.887, 1.252e-1
1.888, 1.252e-1
1.889, 1.251e-1
1.890, 1.249e-1
1.891, 1.247e-1
1.892, 1.245e-1
1.893, 1.241e-1
1.894, 1.237e-1
1.895, 1.236e-1
1.896, 1.235e-1
1.897, 1.235e-1
1.898, 1.232e-1
1.899, 1.229e-1
1.900, 1.228e-1
1.901, 1.228e-1
1.902, 1.235e-1
1.903, 1.233e-1
1.904, 1.229e-1
1.905, 1.224e-1
1.906, 1.222e-1
1.907, 1.221e-1
1.908, 1.218e-1
1.909, 1.217e-1
1.910, 1.217e-1
1.911, 1.215e-1
1.912, 1.215e-1
1.913, 1.217e-1
1.914, 1.218e-1
1.915, 1.216e-1
1.916, 1.222e-1
1.917, 1.223e-1
1.918, 1.218e-1
1.919, 1.217e-1
