May 9, 2026   11:05:05
Linear Sweep Voltammetry
File: e:\xdq\20260509\ru\lsv-1.22-1.92.txt
Data Source:  Experiment
Instrument Model:  CHI660E
Header: 
Note: 

Init E (V) = 1.22
Final E (V) = 1.92
Scan Rate (V/s) = 0.005
Sample Interval (V) = 0.001
Quiet Time (sec) = 2
Sensitivity (A/V) = 0.01

Results:

Channel 1:

Potential/V, Current/A

1.220, -1.430e-5
1.221, -5.487e-6
1.222, -2.515e-6
1.223, -3.773e-7
1.224, 1.266e-6
1.225, 2.901e-6
1.226, 4.276e-6
1.227, 5.487e-6
1.228, 6.729e-6
1.229, 8.089e-6
1.230, 8.812e-6
1.231, 9.645e-6
1.232, 1.049e-5
1.233, 1.130e-5
1.234, 1.193e-5
1.235, 1.263e-5
1.236, 1.331e-5
1.237, 1.376e-5
1.238, 1.432e-5
1.239, 1.486e-5
1.240, 1.523e-5
1.241, 1.581e-5
1.242, 1.627e-5
1.243, 1.654e-5
1.244, 1.696e-5
1.245, 1.723e-5
1.246, 1.766e-5
1.247, 1.796e-5
1.248, 1.836e-5
1.249, 1.863e-5
1.250, 1.888e-5
1.251, 1.919e-5
1.252, 1.955e-5
1.253, 1.961e-5
1.254, 1.997e-5
1.255, 2.026e-5
1.256, 2.032e-5
1.257, 2.062e-5
1.258, 2.077e-5
1.259, 2.089e-5
1.260, 2.118e-5
1.261, 2.129e-5
1.262, 2.132e-5
1.263, 2.152e-5
1.264, 2.170e-5
1.265, 2.188e-5
1.266, 2.201e-5
1.267, 2.221e-5
1.268, 2.235e-5
1.269, 2.237e-5
1.270, 2.256e-5
1.271, 2.275e-5
1.272, 2.274e-5
1.273, 2.296e-5
1.274, 2.305e-5
1.275, 2.303e-5
1.276, 2.322e-5
1.277, 2.326e-5
1.278, 2.332e-5
1.279, 2.343e-5
1.280, 2.360e-5
1.281, 2.366e-5
1.282, 2.369e-5
1.283, 2.366e-5
1.284, 2.383e-5
1.285, 2.387e-5
1.286, 2.405e-5
1.287, 2.422e-5
1.288, 2.409e-5
1.289, 2.424e-5
1.290, 2.427e-5
1.291, 2.432e-5
1.292, 2.444e-5
1.293, 2.457e-5
1.294, 2.449e-5
1.295, 2.460e-5
1.296, 2.458e-5
1.297, 2.464e-5
1.298, 2.464e-5
1.299, 2.487e-5
1.300, 2.485e-5
1.301, 2.486e-5
1.302, 2.493e-5
1.303, 2.499e-5
1.304, 2.495e-5
1.305, 2.518e-5
1.306, 2.526e-5
1.307, 2.519e-5
1.308, 2.530e-5
1.309, 2.536e-5
1.310, 2.534e-5
1.311, 2.539e-5
1.312, 2.550e-5
1.313, 2.560e-5
1.314, 2.564e-5
1.315, 2.563e-5
1.316, 2.577e-5
1.317, 2.563e-5
1.318, 2.581e-5
1.319, 2.596e-5
1.320, 2.581e-5
1.321, 2.592e-5
1.322, 2.600e-5
1.323, 2.596e-5
1.324, 2.610e-5
1.325, 2.614e-5
1.326, 2.616e-5
1.327, 2.623e-5
1.328, 2.629e-5
1.329, 2.639e-5
1.330, 2.633e-5
1.331, 2.664e-5
1.332, 2.666e-5
1.333, 2.656e-5
1.334, 2.662e-5
1.335, 2.671e-5
1.336, 2.664e-5
1.337, 2.679e-5
1.338, 2.689e-5
1.339, 2.687e-5
1.340, 2.707e-5
1.341, 2.717e-5
1.342, 2.721e-5
1.343, 2.728e-5
1.344, 2.734e-5
1.345, 2.741e-5
1.346, 2.741e-5
1.347, 2.758e-5
1.348, 2.762e-5
1.349, 2.755e-5
1.350, 2.773e-5
1.351, 2.790e-5
1.352, 2.777e-5
1.353, 2.795e-5
1.354, 2.802e-5
1.355, 2.800e-5
1.356, 2.816e-5
1.357, 2.834e-5
1.358, 2.835e-5
1.359, 2.847e-5
1.360, 2.854e-5
1.361, 2.865e-5
1.362, 2.875e-5
1.363, 2.888e-5
1.364, 2.900e-5
1.365, 2.903e-5
1.366, 2.913e-5
1.367, 2.932e-5
1.368, 2.927e-5
1.369, 2.948e-5
1.370, 2.960e-5
1.371, 2.961e-5
1.372, 2.986e-5
1.373, 2.998e-5
1.374, 3.015e-5
1.375, 3.029e-5
1.376, 3.036e-5
1.377, 3.052e-5
1.378, 3.063e-5
1.379, 3.079e-5
1.380, 3.100e-5
1.381, 3.103e-5
1.382, 3.131e-5
1.383, 3.159e-5
1.384, 3.162e-5
1.385, 3.185e-5
1.386, 3.204e-5
1.387, 3.210e-5
1.388, 3.236e-5
1.389, 3.262e-5
1.390, 3.286e-5
1.391, 3.309e-5
1.392, 3.331e-5
1.393, 3.363e-5
1.394, 3.383e-5
1.395, 3.426e-5
1.396, 3.458e-5
1.397, 3.466e-5
1.398, 3.502e-5
1.399, 3.544e-5
1.400, 3.568e-5
1.401, 3.618e-5
1.402, 3.651e-5
1.403, 3.680e-5
1.404, 3.729e-5
1.405, 3.764e-5
1.406, 3.808e-5
1.407, 3.859e-5
1.408, 3.912e-5
1.409, 3.959e-5
1.410, 4.004e-5
1.411, 4.065e-5
1.412, 4.135e-5
1.413, 4.176e-5
1.414, 4.247e-5
1.415, 4.325e-5
1.416, 4.385e-5
1.417, 4.475e-5
1.418, 4.550e-5
1.419, 4.617e-5
1.420, 4.722e-5
1.421, 4.816e-5
1.422, 4.909e-5
1.423, 5.010e-5
1.424, 5.110e-5
1.425, 5.236e-5
1.426, 5.355e-5
1.427, 5.484e-5
1.428, 5.630e-5
1.429, 5.744e-5
1.430, 5.904e-5
1.431, 6.058e-5
1.432, 6.206e-5
1.433, 6.398e-5
1.434, 6.581e-5
1.435, 6.738e-5
1.436, 6.942e-5
1.437, 7.144e-5
1.438, 7.358e-5
1.439, 7.580e-5
1.440, 7.814e-5
1.441, 8.064e-5
1.442, 8.301e-5
1.443, 8.582e-5
1.444, 8.871e-5
1.445, 9.136e-5
1.446, 9.462e-5
1.447, 9.790e-5
1.448, 1.009e-4
1.449, 1.047e-4
1.450, 1.084e-4
1.451, 1.121e-4
1.452, 1.162e-4
1.453, 1.205e-4
1.454, 1.248e-4
1.455, 1.295e-4
1.456, 1.344e-4
1.457, 1.394e-4
1.458, 1.445e-4
1.459, 1.499e-4
1.460, 1.556e-4
1.461, 1.612e-4
1.462, 1.674e-4
1.463, 1.737e-4
1.464, 1.800e-4
1.465, 1.870e-4
1.466, 1.943e-4
1.467, 2.015e-4
1.468, 2.094e-4
1.469, 2.173e-4
1.470, 2.256e-4
1.471, 2.342e-4
1.472, 2.433e-4
1.473, 2.525e-4
1.474, 2.620e-4
1.475, 2.720e-4
1.476, 2.822e-4
1.477, 2.925e-4
1.478, 3.034e-4
1.479, 3.147e-4
1.480, 3.262e-4
1.481, 3.383e-4
1.482, 3.506e-4
1.483, 3.634e-4
1.484, 3.763e-4
1.485, 3.896e-4
1.486, 4.034e-4
1.487, 4.174e-4
1.488, 4.319e-4
1.489, 4.468e-4
1.490, 4.620e-4
1.491, 4.779e-4
1.492, 4.940e-4
1.493, 5.101e-4
1.494, 5.270e-4
1.495, 5.443e-4
1.496, 5.615e-4
1.497, 5.796e-4
1.498, 5.982e-4
1.499, 6.170e-4
1.500, 6.362e-4
1.501, 6.558e-4
1.502, 6.761e-4
1.503, 6.966e-4
1.504, 7.178e-4
1.505, 7.393e-4
1.506, 7.611e-4
1.507, 7.839e-4
1.508, 8.070e-4
1.509, 8.302e-4
1.510, 8.544e-4
1.511, 8.788e-4
1.512, 9.038e-4
1.513, 9.294e-4
1.514, 9.552e-4
1.515, 9.817e-4
1.516, 1.009e-3
1.517, 1.036e-3
1.518, 1.065e-3
1.519, 1.094e-3
1.520, 1.123e-3
1.521, 1.153e-3
1.522, 1.183e-3
1.523, 1.215e-3
1.524, 1.246e-3
1.525, 1.278e-3
1.526, 1.310e-3
1.527, 1.342e-3
1.528, 1.375e-3
1.529, 1.409e-3
1.530, 1.443e-3
1.531, 1.477e-3
1.532, 1.512e-3
1.533, 1.547e-3
1.534, 1.583e-3
1.535, 1.619e-3
1.536, 1.656e-3
1.537, 1.693e-3
1.538, 1.729e-3
1.539, 1.766e-3
1.540, 1.803e-3
1.541, 1.841e-3
1.542, 1.879e-3
1.543, 1.918e-3
1.544, 1.956e-3
1.545, 1.995e-3
1.546, 2.034e-3
1.547, 2.074e-3
1.548, 2.114e-3
1.549, 2.155e-3
1.550, 2.196e-3
1.551, 2.237e-3
1.552, 2.280e-3
1.553, 2.322e-3
1.554, 2.365e-3
1.555, 2.409e-3
1.556, 2.453e-3
1.557, 2.497e-3
1.558, 2.543e-3
1.559, 2.589e-3
1.560, 2.636e-3
1.561, 2.683e-3
1.562, 2.732e-3
1.563, 2.782e-3
1.564, 2.832e-3
1.565, 2.883e-3
1.566, 2.934e-3
1.567, 2.985e-3
1.568, 3.039e-3
1.569, 3.094e-3
1.570, 3.150e-3
1.571, 3.206e-3
1.572, 3.263e-3
1.573, 3.321e-3
1.574, 3.381e-3
1.575, 3.442e-3
1.576, 3.504e-3
1.577, 3.566e-3
1.578, 3.631e-3
1.579, 3.697e-3
1.580, 3.763e-3
1.581, 3.830e-3
1.582, 3.898e-3
1.583, 3.967e-3
1.584, 4.037e-3
1.585, 4.108e-3
1.586, 4.180e-3
1.587, 4.254e-3
1.588, 4.329e-3
1.589, 4.405e-3
1.590, 4.482e-3
1.591, 4.559e-3
1.592, 4.638e-3
1.593, 4.719e-3
1.594, 4.801e-3
1.595, 4.884e-3
1.596, 4.967e-3
1.597, 5.052e-3
1.598, 5.137e-3
1.599, 5.222e-3
1.600, 5.309e-3
1.601, 5.398e-3
1.602, 5.488e-3
1.603, 5.578e-3
1.604, 5.670e-3
1.605, 5.763e-3
1.606, 5.858e-3
1.607, 5.953e-3
1.608, 6.046e-3
1.609, 6.143e-3
1.610, 6.240e-3
1.611, 6.339e-3
1.612, 6.440e-3
1.613, 6.540e-3
1.614, 6.642e-3
1.615, 6.744e-3
1.616, 6.846e-3
1.617, 6.949e-3
1.618, 7.053e-3
1.619, 7.161e-3
1.620, 7.269e-3
1.621, 7.387e-3
1.622, 7.502e-3
1.623, 7.612e-3
1.624, 7.720e-3
1.625, 7.832e-3
1.626, 7.944e-3
1.627, 8.057e-3
1.628, 8.168e-3
1.629, 8.278e-3
1.630, 8.392e-3
1.631, 8.507e-3
1.632, 8.624e-3
1.633, 8.741e-3
1.634, 8.853e-3
1.635, 8.971e-3
1.636, 9.090e-3
1.637, 9.210e-3
1.638, 9.332e-3
1.639, 9.457e-3
1.640, 9.578e-3
1.641, 9.701e-3
1.642, 9.824e-3
1.643, 9.946e-3
1.644, 1.007e-2
1.645, 1.019e-2
1.646, 1.032e-2
1.647, 1.044e-2
1.648, 1.057e-2
1.649, 1.069e-2
1.650, 1.082e-2
1.651, 1.095e-2
1.652, 1.108e-2
1.653, 1.121e-2
1.654, 1.134e-2
1.655, 1.147e-2
1.656, 1.160e-2
1.657, 1.173e-2
1.658, 1.186e-2
1.659, 1.200e-2
1.660, 1.213e-2
1.661, 1.226e-2
1.662, 1.240e-2
1.663, 1.253e-2
1.664, 1.267e-2
1.665, 1.281e-2
1.666, 1.295e-2
1.667, 1.309e-2
1.668, 1.322e-2
1.669, 1.336e-2
1.670, 1.350e-2
1.671, 1.363e-2
1.672, 1.377e-2
1.673, 1.391e-2
1.674, 1.405e-2
1.675, 1.419e-2
1.676, 1.433e-2
1.677, 1.448e-2
1.678, 1.462e-2
1.679, 1.475e-2
1.680, 1.490e-2
1.681, 1.504e-2
1.682, 1.518e-2
1.683, 1.533e-2
1.684, 1.547e-2
1.685, 1.561e-2
1.686, 1.575e-2
1.687, 1.590e-2
1.688, 1.604e-2
1.689, 1.618e-2
1.690, 1.633e-2
1.691, 1.651e-2
1.692, 1.666e-2
1.693, 1.681e-2
1.694, 1.695e-2
1.695, 1.709e-2
1.696, 1.723e-2
1.697, 1.738e-2
1.698, 1.752e-2
1.699, 1.767e-2
1.700, 1.782e-2
1.701, 1.796e-2
1.702, 1.811e-2
1.703, 1.825e-2
1.704, 1.840e-2
1.705, 1.855e-2
1.706, 1.870e-2
1.707, 1.885e-2
1.708, 1.900e-2
1.709, 1.915e-2
1.710, 1.929e-2
1.711, 1.944e-2
1.712, 1.961e-2
1.713, 1.977e-2
1.714, 1.992e-2
1.715, 2.008e-2
1.716, 2.024e-2
1.717, 2.039e-2
1.718, 2.053e-2
1.719, 2.068e-2
1.720, 2.083e-2
1.721, 2.098e-2
1.722, 2.114e-2
1.723, 2.129e-2
1.724, 2.143e-2
1.725, 2.158e-2
1.726, 2.173e-2
1.727, 2.188e-2
1.728, 2.203e-2
1.729, 2.218e-2
1.730, 2.232e-2
1.731, 2.246e-2
1.732, 2.261e-2
1.733, 2.276e-2
1.734, 2.291e-2
1.735, 2.305e-2
1.736, 2.320e-2
1.737, 2.333e-2
1.738, 2.348e-2
1.739, 2.362e-2
1.740, 2.377e-2
1.741, 2.392e-2
1.742, 2.406e-2
1.743, 2.420e-2
1.744, 2.434e-2
1.745, 2.449e-2
1.746, 2.462e-2
1.747, 2.483e-2
1.748, 2.502e-2
1.749, 2.519e-2
1.750, 2.532e-2
1.751, 2.546e-2
1.752, 2.560e-2
1.753, 2.573e-2
1.754, 2.587e-2
1.755, 2.600e-2
1.756, 2.614e-2
1.757, 2.626e-2
1.758, 2.639e-2
1.759, 2.653e-2
1.760, 2.666e-2
1.761, 2.680e-2
1.762, 2.693e-2
1.763, 2.705e-2
1.764, 2.719e-2
1.765, 2.732e-2
1.766, 2.746e-2
1.767, 2.759e-2
1.768, 2.772e-2
1.769, 2.784e-2
1.770, 2.796e-2
1.771, 2.809e-2
1.772, 2.822e-2
1.773, 2.835e-2
1.774, 2.847e-2
1.775, 2.859e-2
1.776, 2.871e-2
1.777, 2.882e-2
1.778, 2.894e-2
1.779, 2.907e-2
1.780, 2.918e-2
1.781, 2.930e-2
1.782, 2.943e-2
1.783, 2.955e-2
1.784, 2.971e-2
1.785, 2.984e-2
1.786, 3.003e-2
1.787, 3.021e-2
1.788, 3.031e-2
1.789, 3.042e-2
1.790, 3.054e-2
1.791, 3.066e-2
1.792, 3.077e-2
1.793, 3.086e-2
1.794, 3.098e-2
1.795, 3.108e-2
1.796, 3.118e-2
1.797, 3.130e-2
1.798, 3.140e-2
1.799, 3.152e-2
1.800, 3.164e-2
1.801, 3.176e-2
1.802, 3.186e-2
1.803, 3.198e-2
1.804, 3.209e-2
1.805, 3.219e-2
1.806, 3.230e-2
1.807, 3.242e-2
1.808, 3.253e-2
1.809, 3.264e-2
1.810, 3.273e-2
1.811, 3.283e-2
1.812, 3.293e-2
1.813, 3.303e-2
1.814, 3.313e-2
1.815, 3.322e-2
1.816, 3.333e-2
1.817, 3.344e-2
1.818, 3.353e-2
1.819, 3.370e-2
1.820, 3.392e-2
1.821, 3.405e-2
1.822, 3.415e-2
1.823, 3.426e-2
1.824, 3.435e-2
1.825, 3.444e-2
1.826, 3.454e-2
1.827, 3.462e-2
1.828, 3.470e-2
1.829, 3.479e-2
1.830, 3.490e-2
1.831, 3.499e-2
1.832, 3.509e-2
1.833, 3.518e-2
1.834, 3.528e-2
1.835, 3.538e-2
1.836, 3.547e-2
1.837, 3.557e-2
1.838, 3.565e-2
1.839, 3.576e-2
1.840, 3.586e-2
1.841, 3.596e-2
1.842, 3.606e-2
1.843, 3.615e-2
1.844, 3.625e-2
1.845, 3.633e-2
1.846, 3.642e-2
1.847, 3.652e-2
1.848, 3.661e-2
1.849, 3.671e-2
1.850, 3.685e-2
1.851, 3.697e-2
1.852, 3.703e-2
1.853, 3.710e-2
1.854, 3.719e-2
1.855, 3.729e-2
1.856, 3.739e-2
1.857, 3.748e-2
1.858, 3.756e-2
1.859, 3.768e-2
1.860, 3.780e-2
1.861, 3.790e-2
1.862, 3.799e-2
1.863, 3.811e-2
1.864, 3.820e-2
1.865, 3.828e-2
1.866, 3.836e-2
1.867, 3.848e-2
1.868, 3.860e-2
1.869, 3.868e-2
1.870, 3.878e-2
1.871, 3.885e-2
1.872, 3.893e-2
1.873, 3.903e-2
1.874, 3.912e-2
1.875, 3.920e-2
1.876, 3.931e-2
1.877, 3.940e-2
1.878, 3.949e-2
1.879, 3.959e-2
1.880, 3.968e-2
1.881, 3.975e-2
1.882, 3.986e-2
1.883, 3.995e-2
1.884, 4.004e-2
1.885, 4.016e-2
1.886, 4.025e-2
1.887, 4.034e-2
1.888, 4.045e-2
1.889, 4.054e-2
1.890, 4.063e-2
1.891, 4.073e-2
1.892, 4.081e-2
1.893, 4.091e-2
1.894, 4.100e-2
1.895, 4.111e-2
1.896, 4.121e-2
1.897, 4.133e-2
1.898, 4.143e-2
1.899, 4.152e-2
1.900, 4.160e-2
1.901, 4.169e-2
1.902, 4.181e-2
1.903, 4.190e-2
1.904, 4.200e-2
1.905, 4.209e-2
1.906, 4.219e-2
1.907, 4.228e-2
1.908, 4.236e-2
1.909, 4.243e-2
1.910, 4.274e-2
1.911, 4.293e-2
1.912, 4.300e-2
1.913, 4.311e-2
1.914, 4.319e-2
1.915, 4.327e-2
1.916, 4.335e-2
1.917, 4.344e-2
1.918, 4.353e-2
1.919, 4.360e-2
