May 9, 2026   11:09:22
Linear Sweep Voltammetry
File: e:\xdq\20260509\ru\lsv-2-1.22-1.92-ir-1.66.txt
Data Source:  Experiment
Instrument Model:  CHI660E
Header: 
Note: 

Init E (V) = 1.22
Final E (V) = 1.92
Scan Rate (V/s) = 0.005
Sample Interval (V) = 0.001
Quiet Time (sec) = 2
Sensitivity (A/V) = 0.01
Comp R (ohm) = 1.7

Results:

Channel 1:

Potential/V, Current/A

1.220, 4.066e-4
1.221, 3.924e-4
1.222, 3.764e-4
1.223, 3.617e-4
1.224, 3.485e-4
1.225, 3.369e-4
1.226, 3.264e-4
1.227, 3.168e-4
1.228, 3.085e-4
1.229, 3.013e-4
1.230, 2.943e-4
1.231, 2.881e-4
1.232, 2.824e-4
1.233, 2.771e-4
1.234, 2.723e-4
1.235, 2.680e-4
1.236, 2.639e-4
1.237, 2.599e-4
1.238, 2.564e-4
1.239, 2.531e-4
1.240, 2.498e-4
1.241, 2.470e-4
1.242, 2.443e-4
1.243, 2.415e-4
1.244, 2.390e-4
1.245, 2.367e-4
1.246, 2.346e-4
1.247, 2.325e-4
1.248, 2.305e-4
1.249, 2.287e-4
1.250, 2.268e-4
1.251, 2.251e-4
1.252, 2.236e-4
1.253, 2.220e-4
1.254, 2.208e-4
1.255, 2.193e-4
1.256, 2.178e-4
1.257, 2.165e-4
1.258, 2.152e-4
1.259, 2.140e-4
1.260, 2.130e-4
1.261, 2.118e-4
1.262, 2.106e-4
1.263, 2.096e-4
1.264, 2.085e-4
1.265, 2.075e-4
1.266, 2.064e-4
1.267, 2.056e-4
1.268, 2.046e-4
1.269, 2.033e-4
1.270, 2.025e-4
1.271, 2.017e-4
1.272, 2.006e-4
1.273, 2.000e-4
1.274, 1.992e-4
1.275, 1.983e-4
1.276, 1.975e-4
1.277, 1.968e-4
1.278, 1.958e-4
1.279, 1.951e-4
1.280, 1.944e-4
1.281, 1.937e-4
1.282, 1.927e-4
1.283, 1.920e-4
1.284, 1.912e-4
1.285, 1.903e-4
1.286, 1.896e-4
1.287, 1.889e-4
1.288, 1.881e-4
1.289, 1.873e-4
1.290, 1.866e-4
1.291, 1.858e-4
1.292, 1.852e-4
1.293, 1.845e-4
1.294, 1.837e-4
1.295, 1.831e-4
1.296, 1.823e-4
1.297, 1.817e-4
1.298, 1.809e-4
1.299, 1.802e-4
1.300, 1.795e-4
1.301, 1.788e-4
1.302, 1.781e-4
1.303, 1.775e-4
1.304, 1.768e-4
1.305, 1.763e-4
1.306, 1.758e-4
1.307, 1.750e-4
1.308, 1.744e-4
1.309, 1.737e-4
1.310, 1.731e-4
1.311, 1.724e-4
1.312, 1.718e-4
1.313, 1.712e-4
1.314, 1.706e-4
1.315, 1.700e-4
1.316, 1.694e-4
1.317, 1.687e-4
1.318, 1.682e-4
1.319, 1.677e-4
1.320, 1.669e-4
1.321, 1.664e-4
1.322, 1.658e-4
1.323, 1.652e-4
1.324, 1.647e-4
1.325, 1.641e-4
1.326, 1.634e-4
1.327, 1.630e-4
1.328, 1.622e-4
1.329, 1.616e-4
1.330, 1.611e-4
1.331, 1.608e-4
1.332, 1.603e-4
1.333, 1.596e-4
1.334, 1.591e-4
1.335, 1.585e-4
1.336, 1.579e-4
1.337, 1.574e-4
1.338, 1.569e-4
1.339, 1.562e-4
1.340, 1.558e-4
1.341, 1.551e-4
1.342, 1.546e-4
1.343, 1.542e-4
1.344, 1.538e-4
1.345, 1.532e-4
1.346, 1.527e-4
1.347, 1.521e-4
1.348, 1.516e-4
1.349, 1.509e-4
1.350, 1.505e-4
1.351, 1.500e-4
1.352, 1.495e-4
1.353, 1.490e-4
1.354, 1.484e-4
1.355, 1.479e-4
1.356, 1.475e-4
1.357, 1.471e-4
1.358, 1.465e-4
1.359, 1.461e-4
1.360, 1.455e-4
1.361, 1.450e-4
1.362, 1.445e-4
1.363, 1.442e-4
1.364, 1.437e-4
1.365, 1.431e-4
1.366, 1.427e-4
1.367, 1.423e-4
1.368, 1.417e-4
1.369, 1.413e-4
1.370, 1.409e-4
1.371, 1.404e-4
1.372, 1.400e-4
1.373, 1.396e-4
1.374, 1.391e-4
1.375, 1.386e-4
1.376, 1.383e-4
1.377, 1.377e-4
1.378, 1.373e-4
1.379, 1.370e-4
1.380, 1.367e-4
1.381, 1.362e-4
1.382, 1.359e-4
1.383, 1.357e-4
1.384, 1.352e-4
1.385, 1.349e-4
1.386, 1.345e-4
1.387, 1.342e-4
1.388, 1.339e-4
1.389, 1.337e-4
1.390, 1.334e-4
1.391, 1.332e-4
1.392, 1.328e-4
1.393, 1.326e-4
1.394, 1.323e-4
1.395, 1.324e-4
1.396, 1.322e-4
1.397, 1.320e-4
1.398, 1.319e-4
1.399, 1.319e-4
1.400, 1.317e-4
1.401, 1.318e-4
1.402, 1.318e-4
1.403, 1.317e-4
1.404, 1.319e-4
1.405, 1.320e-4
1.406, 1.320e-4
1.407, 1.323e-4
1.408, 1.326e-4
1.409, 1.329e-4
1.410, 1.331e-4
1.411, 1.334e-4
1.412, 1.339e-4
1.413, 1.343e-4
1.414, 1.349e-4
1.415, 1.356e-4
1.416, 1.361e-4
1.417, 1.369e-4
1.418, 1.377e-4
1.419, 1.385e-4
1.420, 1.396e-4
1.421, 1.408e-4
1.422, 1.418e-4
1.423, 1.431e-4
1.424, 1.443e-4
1.425, 1.459e-4
1.426, 1.475e-4
1.427, 1.494e-4
1.428, 1.514e-4
1.429, 1.533e-4
1.430, 1.557e-4
1.431, 1.583e-4
1.432, 1.606e-4
1.433, 1.636e-4
1.434, 1.667e-4
1.435, 1.697e-4
1.436, 1.733e-4
1.437, 1.769e-4
1.438, 1.809e-4
1.439, 1.852e-4
1.440, 1.899e-4
1.441, 1.948e-4
1.442, 1.999e-4
1.443, 2.055e-4
1.444, 2.116e-4
1.445, 2.178e-4
1.446, 2.248e-4
1.447, 2.321e-4
1.448, 2.395e-4
1.449, 2.478e-4
1.450, 2.563e-4
1.451, 2.653e-4
1.452, 2.752e-4
1.453, 2.854e-4
1.454, 2.960e-4
1.455, 3.075e-4
1.456, 3.195e-4
1.457, 3.323e-4
1.458, 3.456e-4
1.459, 3.600e-4
1.460, 3.749e-4
1.461, 3.899e-4
1.462, 4.065e-4
1.463, 4.237e-4
1.464, 4.413e-4
1.465, 4.603e-4
1.466, 4.800e-4
1.467, 5.002e-4
1.468, 5.216e-4
1.469, 5.439e-4
1.470, 5.668e-4
1.471, 5.909e-4
1.472, 6.161e-4
1.473, 6.423e-4
1.474, 6.693e-4
1.475, 6.975e-4
1.476, 7.266e-4
1.477, 7.565e-4
1.478, 7.881e-4
1.479, 8.205e-4
1.480, 8.533e-4
1.481, 8.876e-4
1.482, 9.228e-4
1.483, 9.589e-4
1.484, 9.961e-4
1.485, 1.035e-3
1.486, 1.074e-3
1.487, 1.115e-3
1.488, 1.157e-3
1.489, 1.200e-3
1.490, 1.243e-3
1.491, 1.288e-3
1.492, 1.334e-3
1.493, 1.379e-3
1.494, 1.427e-3
1.495, 1.476e-3
1.496, 1.526e-3
1.497, 1.577e-3
1.498, 1.629e-3
1.499, 1.682e-3
1.500, 1.735e-3
1.501, 1.789e-3
1.502, 1.846e-3
1.503, 1.902e-3
1.504, 1.960e-3
1.505, 2.020e-3
1.506, 2.079e-3
1.507, 2.141e-3
1.508, 2.204e-3
1.509, 2.267e-3
1.510, 2.332e-3
1.511, 2.399e-3
1.512, 2.465e-3
1.513, 2.534e-3
1.514, 2.604e-3
1.515, 2.675e-3
1.516, 2.748e-3
1.517, 2.822e-3
1.518, 2.898e-3
1.519, 2.974e-3
1.520, 3.052e-3
1.521, 3.132e-3
1.522, 3.212e-3
1.523, 3.295e-3
1.524, 3.379e-3
1.525, 3.464e-3
1.526, 3.550e-3
1.527, 3.638e-3
1.528, 3.728e-3
1.529, 3.818e-3
1.530, 3.910e-3
1.531, 4.004e-3
1.532, 4.098e-3
1.533, 4.195e-3
1.534, 4.292e-3
1.535, 4.391e-3
1.536, 4.492e-3
1.537, 4.594e-3
1.538, 4.697e-3
1.539, 4.801e-3
1.540, 4.906e-3
1.541, 5.011e-3
1.542, 5.120e-3
1.543, 5.229e-3
1.544, 5.339e-3
1.545, 5.452e-3
1.546, 5.566e-3
1.547, 5.682e-3
1.548, 5.799e-3
1.549, 5.920e-3
1.550, 6.042e-3
1.551, 6.165e-3
1.552, 6.290e-3
1.553, 6.418e-3
1.554, 6.547e-3
1.555, 6.676e-3
1.556, 6.809e-3
1.557, 6.944e-3
1.558, 7.083e-3
1.559, 7.223e-3
1.560, 7.365e-3
1.561, 7.513e-3
1.562, 7.661e-3
1.563, 7.812e-3
1.564, 7.965e-3
1.565, 8.122e-3
1.566, 8.280e-3
1.567, 8.441e-3
1.568, 8.608e-3
1.569, 8.777e-3
1.570, 8.948e-3
1.571, 9.124e-3
1.572, 9.303e-3
1.573, 9.482e-3
1.574, 9.667e-3
1.575, 9.856e-3
1.576, 1.005e-2
1.577, 1.024e-2
1.578, 1.044e-2
1.579, 1.064e-2
1.580, 1.084e-2
1.581, 1.105e-2
1.582, 1.126e-2
1.583, 1.147e-2
1.584, 1.169e-2
1.585, 1.192e-2
1.586, 1.214e-2
1.587, 1.237e-2
1.588, 1.260e-2
1.589, 1.283e-2
1.590, 1.307e-2
1.591, 1.331e-2
1.592, 1.355e-2
1.593, 1.380e-2
1.594, 1.405e-2
1.595, 1.431e-2
1.596, 1.457e-2
1.597, 1.482e-2
1.598, 1.509e-2
1.599, 1.536e-2
1.600, 1.563e-2
1.601, 1.590e-2
1.602, 1.618e-2
1.603, 1.647e-2
1.604, 1.675e-2
1.605, 1.706e-2
1.606, 1.743e-2
1.607, 1.774e-2
1.608, 1.805e-2
1.609, 1.835e-2
1.610, 1.866e-2
1.611, 1.895e-2
1.612, 1.924e-2
1.613, 1.954e-2
1.614, 1.984e-2
1.615, 2.015e-2
1.616, 2.046e-2
1.617, 2.076e-2
1.618, 2.107e-2
1.619, 2.138e-2
1.620, 2.169e-2
1.621, 2.201e-2
1.622, 2.234e-2
1.623, 2.269e-2
1.624, 2.320e-2
1.625, 2.360e-2
1.626, 2.403e-2
1.627, 2.437e-2
1.628, 2.469e-2
1.629, 2.500e-2
1.630, 2.533e-2
1.631, 2.566e-2
1.632, 2.598e-2
1.633, 2.631e-2
1.634, 2.665e-2
1.635, 2.700e-2
1.636, 2.740e-2
1.637, 2.779e-2
1.638, 2.815e-2
1.639, 2.850e-2
1.640, 2.884e-2
1.641, 2.918e-2
1.642, 2.953e-2
1.643, 2.987e-2
1.644, 3.021e-2
1.645, 3.055e-2
1.646, 3.090e-2
1.647, 3.123e-2
1.648, 3.157e-2
1.649, 3.192e-2
1.650, 3.226e-2
1.651, 3.267e-2
1.652, 3.302e-2
1.653, 3.336e-2
1.654, 3.371e-2
1.655, 3.416e-2
1.656, 3.480e-2
1.657, 3.516e-2
1.658, 3.549e-2
1.659, 3.582e-2
1.660, 3.615e-2
1.661, 3.651e-2
1.662, 3.686e-2
1.663, 3.718e-2
1.664, 3.756e-2
1.665, 3.795e-2
1.666, 3.829e-2
1.667, 3.861e-2
1.668, 3.896e-2
1.669, 3.931e-2
1.670, 3.965e-2
1.671, 4.000e-2
1.672, 4.042e-2
1.673, 4.072e-2
1.674, 4.103e-2
1.675, 4.134e-2
1.676, 4.162e-2
1.677, 4.201e-2
1.678, 4.269e-2
1.679, 4.320e-2
1.680, 4.374e-2
1.681, 4.432e-2
1.682, 4.466e-2
1.683, 4.503e-2
1.684, 4.538e-2
1.685, 4.571e-2
1.686, 4.604e-2
1.687, 4.634e-2
1.688, 4.666e-2
1.689, 4.696e-2
1.690, 4.727e-2
1.691, 4.759e-2
1.692, 4.792e-2
1.693, 4.840e-2
1.694, 4.886e-2
1.695, 4.917e-2
1.696, 4.946e-2
1.697, 4.974e-2
1.698, 5.000e-2
1.699, 5.028e-2
1.700, 5.055e-2
1.701, 5.083e-2
1.702, 5.111e-2
1.703, 5.142e-2
1.704, 5.171e-2
1.705, 5.198e-2
1.706, 5.227e-2
1.707, 5.255e-2
1.708, 5.287e-2
1.709, 5.332e-2
1.710, 5.370e-2
1.711, 5.410e-2
1.712, 5.485e-2
1.713, 5.516e-2
1.714, 5.531e-2
1.715, 5.552e-2
1.716, 5.576e-2
1.717, 5.598e-2
1.718, 5.620e-2
1.719, 5.641e-2
1.720, 5.661e-2
1.721, 5.688e-2
1.722, 5.719e-2
1.723, 5.746e-2
1.724, 5.768e-2
1.725, 5.787e-2
1.726, 5.810e-2
1.727, 5.846e-2
1.728, 5.872e-2
1.729, 5.941e-2
1.730, 5.973e-2
1.731, 5.990e-2
1.732, 6.012e-2
1.733, 6.031e-2
1.734, 6.057e-2
1.735, 6.076e-2
1.736, 6.097e-2
1.737, 6.123e-2
1.738, 6.142e-2
1.739, 6.158e-2
1.740, 6.172e-2
1.741, 6.191e-2
1.742, 6.206e-2
1.743, 6.223e-2
1.744, 6.241e-2
1.745, 6.261e-2
1.746, 6.278e-2
1.747, 6.298e-2
1.748, 6.316e-2
1.749, 6.330e-2
1.750, 6.341e-2
1.751, 6.361e-2
1.752, 6.380e-2
1.753, 6.411e-2
1.754, 6.495e-2
1.755, 6.534e-2
1.756, 6.549e-2
1.757, 6.557e-2
1.758, 6.566e-2
1.759, 6.575e-2
1.760, 6.590e-2
1.761, 6.605e-2
1.762, 6.618e-2
1.763, 6.628e-2
1.764, 6.643e-2
1.765, 6.666e-2
1.766, 6.692e-2
1.767, 6.711e-2
1.768, 6.730e-2
1.769, 6.760e-2
1.770, 6.761e-2
1.771, 6.769e-2
1.772, 6.774e-2
1.773, 6.797e-2
1.774, 6.824e-2
1.775, 6.830e-2
1.776, 6.834e-2
1.777, 6.895e-2
1.778, 6.950e-2
1.779, 6.972e-2
1.780, 6.980e-2
1.781, 6.983e-2
1.782, 6.990e-2
1.783, 6.994e-2
1.784, 7.003e-2
1.785, 7.013e-2
1.786, 7.016e-2
1.787, 7.021e-2
1.788, 7.029e-2
1.789, 7.036e-2
1.790, 7.041e-2
1.791, 7.051e-2
1.792, 7.059e-2
1.793, 7.063e-2
1.794, 7.077e-2
1.795, 7.147e-2
1.796, 7.171e-2
1.797, 7.174e-2
1.798, 7.178e-2
1.799, 7.178e-2
1.800, 7.185e-2
1.801, 7.193e-2
1.802, 7.226e-2
1.803, 7.236e-2
1.804, 7.254e-2
1.805, 7.281e-2
1.806, 7.280e-2
1.807, 7.289e-2
1.808, 7.318e-2
1.809, 7.326e-2
1.810, 7.329e-2
1.811, 7.329e-2
1.812, 7.331e-2
1.813, 7.335e-2
1.814, 7.339e-2
1.815, 7.345e-2
1.816, 7.353e-2
1.817, 7.362e-2
1.818, 7.390e-2
1.819, 7.404e-2
1.820, 7.419e-2
1.821, 7.447e-2
1.822, 7.457e-2
1.823, 7.457e-2
1.824, 7.460e-2
1.825, 7.464e-2
1.826, 7.470e-2
1.827, 7.476e-2
1.828, 7.475e-2
1.829, 7.485e-2
1.830, 7.492e-2
1.831, 7.488e-2
1.832, 7.514e-2
1.833, 7.532e-2
1.834, 7.547e-2
1.835, 7.568e-2
1.836, 7.567e-2
1.837, 7.578e-2
1.838, 7.595e-2
1.839, 7.606e-2
1.840, 7.604e-2
1.841, 7.618e-2
1.842, 7.615e-2
1.843, 7.636e-2
1.844, 7.662e-2
1.845, 7.666e-2
1.846, 7.668e-2
1.847, 7.671e-2
1.848, 7.667e-2
1.849, 7.674e-2
1.850, 7.684e-2
1.851, 7.691e-2
1.852, 7.693e-2
1.853, 7.692e-2
1.854, 7.708e-2
1.855, 7.756e-2
1.856, 7.783e-2
1.857, 7.785e-2
1.858, 7.779e-2
1.859, 7.777e-2
1.860, 7.779e-2
1.861, 7.796e-2
1.862, 7.795e-2
1.863, 7.798e-2
1.864, 7.808e-2
1.865, 7.826e-2
1.866, 7.826e-2
1.867, 7.840e-2
1.868, 7.845e-2
1.869, 7.840e-2
1.870, 7.836e-2
1.871, 7.838e-2
1.872, 7.844e-2
1.873, 7.850e-2
1.874, 7.873e-2
1.875, 7.944e-2
1.876, 7.969e-2
1.877, 7.971e-2
1.878, 7.968e-2
1.879, 7.974e-2
1.880, 7.979e-2
1.881, 7.972e-2
1.882, 7.974e-2
1.883, 7.979e-2
1.884, 8.010e-2
1.885, 8.057e-2
1.886, 8.074e-2
1.887, 8.068e-2
1.888, 8.067e-2
1.889, 8.081e-2
1.890, 8.091e-2
1.891, 8.076e-2
1.892, 8.065e-2
1.893, 8.061e-2
1.894, 8.056e-2
1.895, 8.060e-2
1.896, 8.058e-2
1.897, 8.058e-2
1.898, 8.054e-2
1.899, 8.048e-2
1.900, 8.054e-2
1.901, 8.052e-2
1.902, 8.049e-2
1.903, 8.086e-2
1.904, 8.128e-2
1.905, 8.142e-2
1.906, 8.133e-2
1.907, 8.127e-2
1.908, 8.134e-2
1.909, 8.150e-2
1.910, 8.181e-2
1.911, 8.176e-2
1.912, 8.178e-2
1.913, 8.193e-2
1.914, 8.214e-2
1.915, 8.209e-2
1.916, 8.202e-2
1.917, 8.192e-2
1.918, 8.191e-2
1.919, 8.182e-2
