May 9, 2026   11:12:42
Linear Sweep Voltammetry
File: e:\xdq\20260509\ru\lsv-1.42-1.92.txt
Data Source:  Experiment
Instrument Model:  CHI660E
Header: 
Note: 

Init E (V) = 1.42
Final E (V) = 1.92
Scan Rate (V/s) = 0.005
Sample Interval (V) = 0.001
Quiet Time (sec) = 2
Sensitivity (A/V) = 0.01

Results:

Channel 1:

Potential/V, Current/A

1.420, 4.831e-5
1.421, 5.970e-5
1.422, 6.153e-5
1.423, 6.275e-5
1.424, 6.399e-5
1.425, 6.533e-5
1.426, 6.670e-5
1.427, 6.822e-5
1.428, 6.990e-5
1.429, 7.151e-5
1.430, 7.351e-5
1.431, 7.568e-5
1.432, 7.752e-5
1.433, 8.003e-5
1.434, 8.250e-5
1.435, 8.484e-5
1.436, 8.763e-5
1.437, 9.038e-5
1.438, 9.339e-5
1.439, 9.663e-5
1.440, 9.996e-5
1.441, 1.036e-4
1.442, 1.073e-4
1.443, 1.113e-4
1.444, 1.157e-4
1.445, 1.199e-4
1.446, 1.248e-4
1.447, 1.299e-4
1.448, 1.348e-4
1.449, 1.405e-4
1.450, 1.461e-4
1.451, 1.519e-4
1.452, 1.584e-4
1.453, 1.650e-4
1.454, 1.721e-4
1.455, 1.794e-4
1.456, 1.871e-4
1.457, 1.954e-4
1.458, 2.039e-4
1.459, 2.130e-4
1.460, 2.226e-4
1.461, 2.322e-4
1.462, 2.425e-4
1.463, 2.534e-4
1.464, 2.646e-4
1.465, 2.765e-4
1.466, 2.888e-4
1.467, 3.015e-4
1.468, 3.149e-4
1.469, 3.288e-4
1.470, 3.435e-4
1.471, 3.588e-4
1.472, 3.745e-4
1.473, 3.905e-4
1.474, 4.074e-4
1.475, 4.251e-4
1.476, 4.434e-4
1.477, 4.621e-4
1.478, 4.819e-4
1.479, 5.021e-4
1.480, 5.228e-4
1.481, 5.444e-4
1.482, 5.664e-4
1.483, 5.892e-4
1.484, 6.130e-4
1.485, 6.376e-4
1.486, 6.627e-4
1.487, 6.885e-4
1.488, 7.150e-4
1.489, 7.422e-4
1.490, 7.701e-4
1.491, 7.990e-4
1.492, 8.285e-4
1.493, 8.583e-4
1.494, 8.891e-4
1.495, 9.207e-4
1.496, 9.527e-4
1.497, 9.860e-4
1.498, 1.020e-3
1.499, 1.054e-3
1.500, 1.090e-3
1.501, 1.126e-3
1.502, 1.163e-3
1.503, 1.201e-3
1.504, 1.240e-3
1.505, 1.279e-3
1.506, 1.320e-3
1.507, 1.361e-3
1.508, 1.403e-3
1.509, 1.445e-3
1.510, 1.489e-3
1.511, 1.534e-3
1.512, 1.580e-3
1.513, 1.626e-3
1.514, 1.674e-3
1.515, 1.722e-3
1.516, 1.771e-3
1.517, 1.821e-3
1.518, 1.872e-3
1.519, 1.924e-3
1.520, 1.976e-3
1.521, 2.030e-3
1.522, 2.085e-3
1.523, 2.141e-3
1.524, 2.197e-3
1.525, 2.254e-3
1.526, 2.313e-3
1.527, 2.372e-3
1.528, 2.432e-3
1.529, 2.492e-3
1.530, 2.554e-3
1.531, 2.615e-3
1.532, 2.678e-3
1.533, 2.742e-3
1.534, 2.806e-3
1.535, 2.871e-3
1.536, 2.936e-3
1.537, 3.003e-3
1.538, 3.068e-3
1.539, 3.135e-3
1.540, 3.203e-3
1.541, 3.270e-3
1.542, 3.339e-3
1.543, 3.409e-3
1.544, 3.479e-3
1.545, 3.549e-3
1.546, 3.620e-3
1.547, 3.692e-3
1.548, 3.764e-3
1.549, 3.838e-3
1.550, 3.912e-3
1.551, 3.987e-3
1.552, 4.063e-3
1.553, 4.138e-3
1.554, 4.215e-3
1.555, 4.294e-3
1.556, 4.374e-3
1.557, 4.454e-3
1.558, 4.535e-3
1.559, 4.618e-3
1.560, 4.701e-3
1.561, 4.786e-3
1.562, 4.871e-3
1.563, 4.958e-3
1.564, 5.045e-3
1.565, 5.133e-3
1.566, 5.225e-3
1.567, 5.316e-3
1.568, 5.410e-3
1.569, 5.506e-3
1.570, 5.602e-3
1.571, 5.699e-3
1.572, 5.799e-3
1.573, 5.900e-3
1.574, 6.002e-3
1.575, 6.107e-3
1.576, 6.213e-3
1.577, 6.322e-3
1.578, 6.429e-3
1.579, 6.539e-3
1.580, 6.651e-3
1.581, 6.764e-3
1.582, 6.881e-3
1.583, 6.998e-3
1.584, 7.118e-3
1.585, 7.241e-3
1.586, 7.362e-3
1.587, 7.487e-3
1.588, 7.613e-3
1.589, 7.739e-3
1.590, 7.867e-3
1.591, 7.996e-3
1.592, 8.129e-3
1.593, 8.262e-3
1.594, 8.397e-3
1.595, 8.532e-3
1.596, 8.669e-3
1.597, 8.809e-3
1.598, 8.953e-3
1.599, 9.095e-3
1.600, 9.239e-3
1.601, 9.385e-3
1.602, 9.534e-3
1.603, 9.682e-3
1.604, 9.832e-3
1.605, 9.983e-3
1.606, 1.014e-2
1.607, 1.029e-2
1.608, 1.045e-2
1.609, 1.061e-2
1.610, 1.076e-2
1.611, 1.092e-2
1.612, 1.108e-2
1.613, 1.124e-2
1.614, 1.140e-2
1.615, 1.156e-2
1.616, 1.173e-2
1.617, 1.189e-2
1.618, 1.206e-2
1.619, 1.223e-2
1.620, 1.240e-2
1.621, 1.257e-2
1.622, 1.274e-2
1.623, 1.291e-2
1.624, 1.308e-2
1.625, 1.326e-2
1.626, 1.343e-2
1.627, 1.361e-2
1.628, 1.379e-2
1.629, 1.397e-2
1.630, 1.416e-2
1.631, 1.434e-2
1.632, 1.452e-2
1.633, 1.470e-2
1.634, 1.488e-2
1.635, 1.507e-2
1.636, 1.525e-2
1.637, 1.543e-2
1.638, 1.562e-2
1.639, 1.581e-2
1.640, 1.600e-2
1.641, 1.619e-2
1.642, 1.637e-2
1.643, 1.656e-2
1.644, 1.676e-2
1.645, 1.695e-2
1.646, 1.714e-2
1.647, 1.734e-2
1.648, 1.753e-2
1.649, 1.772e-2
1.650, 1.791e-2
1.651, 1.810e-2
1.652, 1.829e-2
1.653, 1.849e-2
1.654, 1.869e-2
1.655, 1.888e-2
1.656, 1.909e-2
1.657, 1.933e-2
1.658, 1.958e-2
1.659, 1.979e-2
1.660, 1.998e-2
1.661, 2.018e-2
1.662, 2.039e-2
1.663, 2.059e-2
1.664, 2.079e-2
1.665, 2.102e-2
1.666, 2.123e-2
1.667, 2.142e-2
1.668, 2.162e-2
1.669, 2.183e-2
1.670, 2.203e-2
1.671, 2.223e-2
1.672, 2.243e-2
1.673, 2.264e-2
1.674, 2.285e-2
1.675, 2.306e-2
1.676, 2.327e-2
1.677, 2.348e-2
1.678, 2.369e-2
1.679, 2.390e-2
1.680, 2.411e-2
1.681, 2.431e-2
1.682, 2.452e-2
1.683, 2.473e-2
1.684, 2.493e-2
1.685, 2.514e-2
1.686, 2.534e-2
1.687, 2.555e-2
1.688, 2.576e-2
1.689, 2.598e-2
1.690, 2.618e-2
1.691, 2.640e-2
1.692, 2.662e-2
1.693, 2.684e-2
1.694, 2.705e-2
1.695, 2.724e-2
1.696, 2.745e-2
1.697, 2.766e-2
1.698, 2.787e-2
1.699, 2.807e-2
1.700, 2.829e-2
1.701, 2.850e-2
1.702, 2.868e-2
1.703, 2.887e-2
1.704, 2.910e-2
1.705, 2.934e-2
1.706, 2.957e-2
1.707, 2.977e-2
1.708, 2.997e-2
1.709, 3.017e-2
1.710, 3.038e-2
1.711, 3.058e-2
1.712, 3.079e-2
1.713, 3.100e-2
1.714, 3.130e-2
1.715, 3.157e-2
1.716, 3.177e-2
1.717, 3.197e-2
1.718, 3.217e-2
1.719, 3.237e-2
1.720, 3.257e-2
1.721, 3.277e-2
1.722, 3.296e-2
1.723, 3.321e-2
1.724, 3.355e-2
1.725, 3.377e-2
1.726, 3.398e-2
1.727, 3.418e-2
1.728, 3.438e-2
1.729, 3.459e-2
1.730, 3.478e-2
1.731, 3.498e-2
1.732, 3.519e-2
1.733, 3.539e-2
1.734, 3.558e-2
1.735, 3.578e-2
1.736, 3.598e-2
1.737, 3.617e-2
1.738, 3.637e-2
1.739, 3.656e-2
1.740, 3.676e-2
1.741, 3.697e-2
1.742, 3.717e-2
1.743, 3.737e-2
1.744, 3.756e-2
1.745, 3.775e-2
1.746, 3.794e-2
1.747, 3.814e-2
1.748, 3.834e-2
1.749, 3.859e-2
1.750, 3.892e-2
1.751, 3.918e-2
1.752, 3.938e-2
1.753, 3.957e-2
1.754, 3.975e-2
1.755, 3.994e-2
1.756, 4.014e-2
1.757, 4.032e-2
1.758, 4.051e-2
1.759, 4.068e-2
1.760, 4.086e-2
1.761, 4.104e-2
1.762, 4.129e-2
1.763, 4.155e-2
1.764, 4.175e-2
1.765, 4.192e-2
1.766, 4.209e-2
1.767, 4.227e-2
1.768, 4.246e-2
1.769, 4.265e-2
1.770, 4.287e-2
1.771, 4.307e-2
1.772, 4.327e-2
1.773, 4.346e-2
1.774, 4.365e-2
1.775, 4.382e-2
1.776, 4.401e-2
1.777, 4.419e-2
1.778, 4.435e-2
1.779, 4.454e-2
1.780, 4.473e-2
1.781, 4.491e-2
1.782, 4.510e-2
1.783, 4.528e-2
1.784, 4.544e-2
1.785, 4.561e-2
1.786, 4.578e-2
1.787, 4.595e-2
1.788, 4.612e-2
1.789, 4.628e-2
1.790, 4.646e-2
1.791, 4.663e-2
1.792, 4.687e-2
1.793, 4.716e-2
1.794, 4.731e-2
1.795, 4.747e-2
1.796, 4.763e-2
1.797, 4.779e-2
1.798, 4.795e-2
1.799, 4.812e-2
1.800, 4.830e-2
1.801, 4.848e-2
1.802, 4.863e-2
1.803, 4.879e-2
1.804, 4.895e-2
1.805, 4.909e-2
1.806, 4.925e-2
1.807, 4.941e-2
1.808, 4.956e-2
1.809, 4.973e-2
1.810, 4.987e-2
1.811, 5.003e-2
1.812, 5.020e-2
1.813, 5.036e-2
1.814, 5.052e-2
1.815, 5.068e-2
1.816, 5.088e-2
1.817, 5.102e-2
1.818, 5.118e-2
1.819, 5.147e-2
1.820, 5.168e-2
1.821, 5.183e-2
1.822, 5.197e-2
1.823, 5.211e-2
1.824, 5.224e-2
1.825, 5.238e-2
1.826, 5.253e-2
1.827, 5.267e-2
1.828, 5.282e-2
1.829, 5.299e-2
1.830, 5.317e-2
1.831, 5.332e-2
1.832, 5.344e-2
1.833, 5.356e-2
1.834, 5.368e-2
1.835, 5.380e-2
1.836, 5.393e-2
1.837, 5.407e-2
1.838, 5.420e-2
1.839, 5.432e-2
1.840, 5.453e-2
1.841, 5.480e-2
1.842, 5.491e-2
1.843, 5.502e-2
1.844, 5.512e-2
1.845, 5.524e-2
1.846, 5.535e-2
1.847, 5.545e-2
1.848, 5.556e-2
1.849, 5.566e-2
1.850, 5.578e-2
1.851, 5.588e-2
1.852, 5.598e-2
1.853, 5.610e-2
1.854, 5.623e-2
1.855, 5.635e-2
1.856, 5.646e-2
1.857, 5.656e-2
1.858, 5.666e-2
1.859, 5.685e-2
1.860, 5.703e-2
1.861, 5.712e-2
1.862, 5.721e-2
1.863, 5.731e-2
1.864, 5.742e-2
1.865, 5.752e-2
1.866, 5.763e-2
1.867, 5.773e-2
1.868, 5.807e-2
1.869, 5.830e-2
1.870, 5.839e-2
1.871, 5.851e-2
1.872, 5.866e-2
1.873, 5.875e-2
1.874, 5.885e-2
1.875, 5.894e-2
1.876, 5.900e-2
1.877, 5.928e-2
1.878, 5.941e-2
1.879, 5.953e-2
1.880, 5.984e-2
1.881, 6.006e-2
1.882, 6.012e-2
1.883, 6.022e-2
1.884, 6.030e-2
1.885, 6.039e-2
1.886, 6.049e-2
1.887, 6.059e-2
1.888, 6.067e-2
1.889, 6.082e-2
1.890, 6.096e-2
1.891, 6.105e-2
1.892, 6.112e-2
1.893, 6.123e-2
1.894, 6.132e-2
1.895, 6.138e-2
1.896, 6.149e-2
1.897, 6.157e-2
1.898, 6.164e-2
1.899, 6.175e-2
1.900, 6.188e-2
1.901, 6.198e-2
1.902, 6.206e-2
1.903, 6.217e-2
1.904, 6.228e-2
1.905, 6.234e-2
1.906, 6.241e-2
1.907, 6.250e-2
1.908, 6.258e-2
1.909, 6.264e-2
1.910, 6.271e-2
1.911, 6.283e-2
1.912, 6.291e-2
1.913, 6.301e-2
1.914, 6.311e-2
1.915, 6.322e-2
1.916, 6.325e-2
1.917, 6.336e-2
1.918, 6.344e-2
1.919, 6.349e-2
