Ewe/V	<I>/mA	
1.3696302E+000	0.000000000000000E+000
1.3677049E+000	0.000000000000000E+000
1.2308848E+000	-1.094772118330002E+001
1.2326950E+000	-1.701686790916717E+000
1.2360290E+000	-4.573000218935803E-001
1.2393796E+000	-2.350420551456569E-001
1.2427005E+000	-1.327286379791187E-001
1.2460364E+000	-7.234169670248369E-002
1.2493583E+000	-3.166774936936423E-002
1.2526739E+000	-1.699520079025067E-003
1.2560343E+000	2.093637943079624E-002
1.2593672E+000	3.891468507160906E-002
1.2627033E+000	5.309868102073800E-002
1.2660387E+000	6.558046689974151E-002
1.2693757E+000	7.606275327526490E-002
1.2727107E+000	8.454349036164266E-002
1.2760329E+000	9.218323071816936E-002
1.2793735E+000	9.961002456472368E-002
1.2827049E+000	1.053771896659103E-001
1.2860341E+000	1.103837318071665E-001
1.2893590E+000	1.151506580824311E-001
1.2926981E+000	1.193453705368479E-001
1.2960312E+000	1.232163706675733E-001
1.2993770E+000	1.272883121477159E-001
1.3027159E+000	1.301102227309454E-001
1.3060319E+000	1.330612997775837E-001
1.3093798E+000	1.357776229885640E-001
1.3127283E+000	1.387068449474043E-001
1.3160541E+000	1.405803528569365E-001
1.3193877E+000	1.432572649165538E-001
1.3227047E+000	1.457558314825347E-001
1.3260159E+000	1.475179811211587E-001
1.3293548E+000	1.500073427065276E-001
1.3327167E+000	1.518563601583871E-001
1.3360344E+000	1.538030335786706E-001
1.3393615E+000	1.563027759106870E-001
1.3427120E+000	1.586204489195446E-001
1.3460401E+000	1.610129071519499E-001
1.3493667E+000	1.634392980611636E-001
1.3527151E+000	1.664016037066727E-001
1.3560374E+000	1.694348717195793E-001
1.3593811E+000	1.724492959504609E-001
1.3627100E+000	1.767364162513390E-001
1.3660619E+000	1.805298334056341E-001
1.3693871E+000	1.846015594593358E-001
1.3727460E+000	1.898506155257191E-001
1.3760614E+000	1.961543957276444E-001
1.3794022E+000	2.028091056554966E-001
1.3827392E+000	2.110516333930468E-001
1.3860704E+000	2.211230396003707E-001
1.3893963E+000	2.324432004413000E-001
1.3927304E+000	2.467894510037274E-001
1.3960568E+000	2.632305513201283E-001
1.3993833E+000	2.843435132131782E-001
1.4027258E+000	3.098236398577132E-001
1.4060656E+000	3.401078681164682E-001
1.4093835E+000	3.789942442295500E-001
1.4127054E+000	4.244220672725545E-001
1.4160388E+000	4.798960870161562E-001
1.4193661E+000	5.477940877247764E-001
1.4226881E+000	6.290661550813414E-001
1.4260211E+000	7.256928205678124E-001
1.4293448E+000	8.399581260884732E-001
1.4327264E+000	9.753164519915654E-001
1.4360821E+000	1.132302647219877E+000
1.4393983E+000	1.309842367124064E+000
1.4427249E+000	1.513436077885496E+000
1.4460405E+000	1.742714105973469E+000
1.4493642E+000	1.999485523277478E+000
1.4527247E+000	2.287605955720910E+000
1.4560436E+000	2.603139366954014E+000
1.4593813E+000	2.948765593212528E+000
1.4627011E+000	3.324809395244394E+000
1.4660378E+000	3.729407176382509E+000
1.4693871E+000	4.164830148178488E+000
1.4727062E+000	4.630270831288726E+000
1.4760233E+000	5.123357682157092E+000
1.4793586E+000	5.644501637889135E+000
1.4826754E+000	6.193427960444950E+000
1.4860176E+000	6.770426947864280E+000
1.4893662E+000	7.374143208641904E+000
1.4926970E+000	8.001586766657709E+000
1.4960090E+000	8.653783160694275E+000
1.4993645E+000	9.327601134237085E+000
1.5026668E+000	1.002595195602402E+001
1.5060428E+000	1.075372063524409E+001
1.5094123E+000	1.151622289543169E+001
1.5127382E+000	1.228136897019306E+001
1.5160751E+000	1.306705201791871E+001
1.5194067E+000	1.387154695012019E+001
1.5227257E+000	1.469569235673450E+001
1.5260532E+000	1.553850913693168E+001
1.5294074E+000	1.639967078650585E+001
1.5327389E+000	1.727657250663748E+001
1.5360804E+000	1.816802015790866E+001
1.5394109E+000	1.907662833945022E+001
1.5427341E+000	2.000314914746036E+001
1.5460691E+000	2.094470236716681E+001
1.5494071E+000	2.190232014486719E+001
1.5527264E+000	2.286940196859614E+001
1.5560576E+000	2.385718418764952E+001
1.5593998E+000	2.485839280000926E+001
1.5627350E+000	2.587082162117360E+001
1.5660577E+000	2.689404977548077E+001
1.5694027E+000	2.793176860716082E+001
1.5727443E+000	2.897962129038501E+001
1.5760837E+000	3.004153487117060E+001
1.5794109E+000	3.111317352780350E+001
1.5827478E+000	3.219805530354570E+001
1.5860858E+000	3.329283440773128E+001
1.5894099E+000	3.439416903717181E+001
1.5927479E+000	3.550841983622354E+001
1.5960635E+000	3.663302112974543E+001
1.5994031E+000	3.776583948467857E+001
1.6027399E+000	3.890939393366494E+001
1.6060725E+000	4.006321297376797E+001
1.6094056E+000	4.122588591050021E+001
1.6127576E+000	4.240336103670870E+001
1.6160593E+000	4.358277574136906E+001
1.6194011E+000	4.477254450849904E+001
1.6227455E+000	4.597087332338788E+001
1.6260703E+000	4.717030591223136E+001
1.6294093E+000	4.838353216603196E+001
1.6327462E+000	4.960881693281169E+001
1.6360795E+000	5.083686423078484E+001
1.6394063E+000	5.207728583754670E+001
1.6427438E+000	5.334091961836492E+001
1.6460890E+000	5.459297866854581E+001
1.6494218E+000	5.585026029635742E+001
1.6527342E+000	5.711134825564818E+001
1.6560887E+000	5.838437849809839E+001
1.6594270E+000	5.966293062147531E+001
1.6627631E+000	6.095965977523667E+001
1.6661168E+000	6.225575773080959E+001
1.6694322E+000	6.355534799664485E+001
1.6727384E+000	6.485369331343554E+001
1.6760858E+000	6.615742196211772E+001
1.6794074E+000	6.745482848637175E+001
1.6827401E+000	6.880698477853804E+001
1.6860895E+000	7.014557040600380E+001
1.6894224E+000	7.148823001319374E+001
1.6927699E+000	7.285995966203700E+001
1.6960990E+000	7.420392478066628E+001
1.6994251E+000	7.558873108829778E+001
1.7027605E+000	7.697135046978849E+001
1.7061230E+000	7.835000656569082E+001
1.7094511E+000	7.975186724801142E+001
1.7127858E+000	8.112979005062743E+001
1.7161046E+000	8.249631810603819E+001
1.7194490E+000	8.391022281663663E+001
1.7227980E+000	8.532966637930002E+001
1.7261318E+000	8.672118875815386E+001
1.7294666E+000	8.811030844069592E+001
1.7328020E+000	8.952441856290466E+001
1.7361375E+000	9.093973817963138E+001
1.7394763E+000	9.234966884549783E+001
1.7428031E+000	9.376366252348714E+001
1.7461357E+000	9.516831417302387E+001
1.7494599E+000	9.658443740052462E+001
1.7527986E+000	9.801028729579298E+001
1.7561423E+000	9.942965159936671E+001
1.7594689E+000	1.008961256531551E+002
1.7627996E+000	1.023771535393753E+002
1.7661341E+000	1.038194647174304E+002
1.7694827E+000	1.053367780463357E+002
1.7727990E+000	1.068354388450057E+002
1.7761593E+000	1.082845844308536E+002
1.7795130E+000	1.098360282628942E+002
1.7828751E+000	1.114440053754363E+002
1.7862098E+000	1.129165450374992E+002
1.7895540E+000	1.143868995436167E+002
1.7928793E+000	1.158105449250861E+002
1.7962012E+000	1.172648297979582E+002
1.7995412E+000	1.187121381713064E+002
1.8028753E+000	1.201420877504797E+002
1.8062123E+000	1.215873351548754E+002
1.8095613E+000	1.231401340313332E+002
1.8128871E+000	1.246106663984374E+002
1.8162245E+000	1.260698234779737E+002
1.8195471E+000	1.275057502398254E+002
1.8228793E+000	1.290278716703924E+002
1.8261983E+000	1.305126396699125E+002
1.8295493E+000	1.320491959835110E+002
1.8328809E+000	1.334843488294682E+002
1.8362242E+000	1.350174996180097E+002
1.8395686E+000	1.366094472486625E+002
1.8428946E+000	1.380694975676684E+002
1.8462211E+000	1.395589017723978E+002
1.8490627E+000	1.408303966457283E+002
1.8503762E+000	1.414430080874936E+002