Ewe/V	<I>/mA	
1.3759241E+000	0.000000000000000E+000
1.3740157E+000	0.000000000000000E+000
1.2308794E+000	-1.981772762062278E+001
1.2328871E+000	-1.094699479636260E+000
1.2367496E+000	-3.099445632268725E-001
1.2400887E+000	-1.519746131341795E-001
1.2434109E+000	-8.286543069808827E-002
1.2467684E+000	-3.695877558963329E-002
1.2500900E+000	4.085905391801556E-003
1.2534333E+000	2.150889316122491E-002
1.2567804E+000	3.907792353230216E-002
1.2601342E+000	5.354986743875756E-002
1.2634470E+000	6.530031529031355E-002
1.2667912E+000	7.543259758205934E-002
1.2701362E+000	8.480725377822940E-002
1.2734803E+000	9.206258066433759E-002
1.2768267E+000	9.926591312657940E-002
1.2801586E+000	1.050990203688842E-001
1.2834866E+000	1.097888903167847E-001
1.2868156E+000	1.147982884082976E-001
1.2901375E+000	1.192547859451722E-001
1.2934756E+000	1.232412145879853E-001
1.2968206E+000	1.269696902276669E-001
1.3001628E+000	1.302896840661361E-001
1.3035214E+000	1.445717235233439E-001
1.3068603E+000	1.375170697963970E-001
1.3101807E+000	1.389134186730878E-001
1.3135312E+000	1.419363359818200E-001
1.3168730E+000	1.435344620060746E-001
1.3202118E+000	1.457079847661911E-001
1.3235567E+000	1.480979570171734E-001
1.3268800E+000	1.500555782129562E-001
1.3302387E+000	1.520011228227047E-001
1.3335850E+000	1.537724305954671E-001
1.3369105E+000	1.555068685112726E-001
1.3402729E+000	1.578329506776973E-001
1.3436033E+000	1.603699082672594E-001
1.3469473E+000	1.624982560883974E-001
1.3502884E+000	1.655819209302685E-001
1.3536408E+000	1.675691361543494E-001
1.3569800E+000	1.711739547972293E-001
1.3602931E+000	1.743695635857891E-001
1.3636553E+000	1.784955427006071E-001
1.3669965E+000	1.825405385143919E-001
1.3703399E+000	1.873222882384302E-001
1.3736875E+000	1.932467242973999E-001
1.3770134E+000	1.999261510800175E-001
1.3803707E+000	2.075943837842513E-001
1.3837171E+000	2.163957431172365E-001
1.3870466E+000	2.277323632737549E-001
1.3904002E+000	2.561728538787174E-001
1.3937352E+000	2.590438362072884E-001
1.3970559E+000	2.782208201276157E-001
1.4003780E+000	3.011085058290000E-001
1.4037282E+000	3.300203375408860E-001
1.4070623E+000	3.663748020002497E-001
1.4103960E+000	4.240701373081635E-001
1.4137230E+000	4.699133289327180E-001
1.4170821E+000	5.318757470202762E-001
1.4204109E+000	6.301281414823783E-001
1.4237217E+000	7.128909322053101E-001
1.4270678E+000	8.496291632155668E-001
1.4304383E+000	9.955655476736105E-001
1.4338088E+000	1.169092965337374E+000
1.4371356E+000	1.375617544788572E+000
1.4404762E+000	1.617205994718359E+000
1.4437940E+000	1.911408014608710E+000
1.4471524E+000	2.243155264020649E+000
1.4504929E+000	2.635291411530410E+000
1.4538426E+000	3.075851663143416E+000
1.4571749E+000	3.589775138639592E+000
1.4604957E+000	4.166619431162673E+000
1.4638525E+000	4.835121303149691E+000
1.4671636E+000	5.571787053727661E+000
1.4705046E+000	6.399710232064511E+000
1.4738439E+000	7.316942577031426E+000
1.4771795E+000	8.337812712285626E+000
1.4805293E+000	9.438187965693089E+000
1.4838704E+000	1.068407847522906E+001
1.4872423E+000	1.203518675224517E+001
1.4905970E+000	1.348207630985110E+001
1.4939413E+000	1.503935400263040E+001
1.4972757E+000	1.670417597211940E+001
1.5005935E+000	1.851560589039832E+001
1.5039330E+000	2.043596681356271E+001
1.5072728E+000	2.240864445983851E+001
1.5106117E+000	2.446641099304355E+001
1.5139401E+000	2.677385172004111E+001
1.5173024E+000	2.921269276958117E+001
1.5206236E+000	3.178027948829993E+001
1.5239555E+000	3.449439335483828E+001
1.5273043E+000	3.732849499109406E+001
1.5306215E+000	4.032660548995295E+001
1.5339510E+000	4.343022831641662E+001
1.5373108E+000	4.673399853294256E+001
1.5406507E+000	5.016026587096019E+001
1.5440007E+000	5.369127362869415E+001
1.5473318E+000	5.743321326523812E+001
1.5506639E+000	6.128962755600099E+001
1.5540349E+000	6.518632615408967E+001
1.5573591E+000	6.911931312369666E+001
1.5607171E+000	7.343727007385860E+001
1.5640548E+000	7.793475284828196E+001
1.5674384E+000	8.263888246119814E+001
1.5707824E+000	8.749097425070059E+001
1.5741295E+000	9.250829014891406E+001
1.5774409E+000	9.775528111533788E+001
1.5807834E+000	1.028717644165797E+002
1.5841447E+000	1.084332554061534E+002
1.5875410E+000	1.145908524657880E+002
1.5908592E+000	1.205394418763813E+002
1.5942146E+000	1.267067588905265E+002
1.5975521E+000	1.329940029834958E+002
1.6009271E+000	1.395486796063060E+002
1.6042528E+000	1.461829251943227E+002
1.6076052E+000	1.534137869405837E+002
1.6109443E+000	1.612060679317694E+002
1.6142994E+000	1.694046984474917E+002
1.6176345E+000	1.769837819687107E+002
1.6209872E+000	1.846947219979902E+002
1.6243331E+000	1.928570403224473E+002
1.6276766E+000	2.012183987910373E+002
1.6310375E+000	2.095283150015994E+002
1.6343828E+000	2.178955901566542E+002
1.6377494E+000	2.263029042495525E+002
1.6411186E+000	2.348156959136941E+002
1.6444846E+000	2.442537700058911E+002
1.6477985E+000	2.531765671917892E+002
1.6511651E+000	2.621538459637259E+002
1.6544973E+000	2.717434573447190E+002
1.6578500E+000	2.813698936959963E+002
1.6612096E+000	2.908238343381390E+002
1.6645658E+000	3.009244760434040E+002
1.6679235E+000	3.113841341299039E+002
1.6712719E+000	3.242003821862227E+002
1.6745979E+000	3.357045848050934E+002
1.6779586E+000	3.479104348049864E+002
1.6813170E+000	3.580408254064996E+002
1.6846679E+000	3.674359555749616E+002
1.6880231E+000	3.826324657790019E+002
1.6913866E+000	3.964383189631085E+002
1.6947695E+000	4.093276788479152E+002
1.6981285E+000	4.237689524303808E+002
1.7003299E+000	4.332445055001491E+002
1.7009714E+000	4.356307540893549E+002