Ewe/V	<I>/mA	
1.1479931E+000	0.000000000000000E+000
1.1487950E+000	0.000000000000000E+000
1.2309260E+000	6.711620038350418E+000
1.2316629E+000	1.693103233511710E+000
1.2328030E+000	6.002558634115953E-001
1.2338573E+000	4.406316522934728E-001
1.2348676E+000	3.484438614183070E-001
1.2358843E+000	3.124492161489714E-001
1.2368897E+000	2.821115032577568E-001
1.2378780E+000	2.597982955129305E-001
1.2388784E+000	2.434133715281379E-001
1.2398839E+000	2.185747423411448E-001
1.2408843E+000	2.163436694087589E-001
1.2418927E+000	2.098850827130847E-001
1.2428739E+000	2.030586125537572E-001
1.2438900E+000	1.967088468362284E-001
1.2448931E+000	1.934739014613194E-001
1.2459077E+000	1.893554750555377E-001
1.2469049E+000	1.855560996099074E-001
1.2478908E+000	1.821952432428118E-001
1.2488954E+000	1.788548255324456E-001
1.2499086E+000	1.764568027801587E-001
1.2509000E+000	1.740413194351864E-001
1.2519009E+000	1.717408584608203E-001
1.2529047E+000	1.707200808030196E-001
1.2539058E+000	1.686357605363962E-001
1.2548987E+000	1.670712183721683E-001
1.2558949E+000	1.655379347200241E-001
1.2568953E+000	1.643430689777330E-001
1.2579038E+000	1.634990714676255E-001
1.2589241E+000	1.629560159256869E-001
1.2599183E+000	1.618258253620546E-001
1.2609138E+000	1.606563957655460E-001
1.2619225E+000	1.603584410719889E-001
1.2629061E+000	1.593423299221990E-001
1.2639352E+000	1.588786227952755E-001
1.2649249E+000	1.580483776017131E-001
1.2659442E+000	1.574478181630219E-001
1.2669339E+000	1.567827950918170E-001
1.2679156E+000	1.561363230643122E-001
1.2689328E+000	1.558600940387171E-001
1.2699238E+000	1.555357167263431E-001
1.2709272E+000	1.549573380251265E-001
1.2719389E+000	1.550492337216411E-001
1.2729450E+000	1.545248000771990E-001
1.2739463E+000	1.543504775537690E-001
1.2749515E+000	1.542107152037229E-001
1.2759448E+000	1.533806764788913E-001
1.2769369E+000	1.535109328425537E-001
1.2779410E+000	1.523389115737936E-001
1.2789471E+000	1.524799627336748E-001
1.2799535E+000	1.524538563305837E-001
1.2809509E+000	1.522216787204032E-001
1.2819341E+000	1.521525564811697E-001
1.2829574E+000	1.517967271770603E-001
1.2839510E+000	1.519371153398201E-001
1.2849545E+000	1.518731118269801E-001
1.2859600E+000	1.512796781092649E-001
1.2869538E+000	1.513965892220699E-001
1.2879410E+000	1.510540996061469E-001
1.2889589E+000	1.508821746362168E-001
1.2899716E+000	1.511760809261815E-001
1.2909609E+000	1.512196400150581E-001
1.2919747E+000	1.508194319724345E-001
1.2929624E+000	1.507656320539850E-001
1.2939614E+000	1.506679824223827E-001
1.2949731E+000	1.521255850044139E-001
1.2959808E+000	1.548240758451975E-001
1.2969686E+000	1.527645460386975E-001
1.2979637E+000	1.518683310370237E-001
1.2989788E+000	1.513946491310504E-001
1.2999878E+000	1.514720766176172E-001
1.3009739E+000	1.511690494143150E-001
1.3019695E+000	1.512629363768458E-001
1.3029889E+000	1.514770881781802E-001
1.3039885E+000	1.510094423229256E-001
1.3049923E+000	1.513735368064352E-001
1.3059946E+000	1.511251142044707E-001
1.3070039E+000	1.515501253815075E-001
1.3079995E+000	1.510832060405183E-001
1.3090010E+000	1.517219223165276E-001
1.3099898E+000	1.519092185995560E-001
1.3109931E+000	1.517114766852203E-001
1.3120258E+000	1.517652737390209E-001
1.3130044E+000	1.515731933661078E-001
1.3140073E+000	1.523696959020735E-001
1.3150156E+000	1.520652467441682E-001
1.3160045E+000	1.521301685653422E-001
1.3170030E+000	1.523167987421288E-001
1.3180134E+000	1.524311435850538E-001
1.3190321E+000	1.523258486176511E-001
1.3200064E+000	1.524391580430668E-001
1.3210032E+000	1.533928951033202E-001
1.3220211E+000	1.533582085368299E-001
1.3230324E+000	1.533490394125421E-001
1.3240374E+000	1.534742249456785E-001
1.3250279E+000	1.540952130335351E-001
1.3260183E+000	1.534644195499248E-001
1.3270327E+000	1.540864220916376E-001
1.3280308E+000	1.545762721135248E-001
1.3290317E+000	1.544603011973198E-001
1.3300484E+000	1.544923348123214E-001
1.3310401E+000	1.552601014307243E-001
1.3320514E+000	1.549298496725238E-001
1.3330662E+000	1.551990186115202E-001
1.3340670E+000	1.549039157813628E-001
1.3350692E+000	1.553481853706449E-001
1.3360547E+000	1.557170121977089E-001
1.3370513E+000	1.559200336915909E-001
1.3380535E+000	1.560914518381308E-001
1.3390644E+000	1.568748924869550E-001
1.3400550E+000	1.566663582676178E-001
1.3410685E+000	1.572595957176686E-001
1.3420665E+000	1.620817638357868E-001
1.3430670E+000	1.606007661509947E-001
1.3440676E+000	1.589830397697152E-001
1.3450582E+000	1.589448033892713E-001
1.3460766E+000	1.594872051588716E-001
1.3470641E+000	1.596301663025420E-001
1.3480656E+000	1.598080291271278E-001
1.3490620E+000	1.601925202468131E-001
1.3500731E+000	1.608815145174090E-001
1.3510627E+000	1.609046164458688E-001
1.3520639E+000	1.614091351371871E-001
1.3530738E+000	1.615823384800885E-001
1.3540766E+000	1.625773905045904E-001
1.3550663E+000	1.635487813318796E-001
1.3560772E+000	1.643368770841449E-001
1.3570887E+000	1.644289351450215E-001
1.3580841E+000	1.648299124871948E-001
1.3590840E+000	1.652509718170646E-001
1.3601063E+000	1.659523671547845E-001
1.3610932E+000	1.672675785123812E-001
1.3621138E+000	1.679050788946471E-001
1.3631092E+000	1.682346334603622E-001
1.3641022E+000	1.695742706489445E-001
1.3650885E+000	1.700306255271425E-001
1.3660949E+000	1.704356089007246E-001
1.3671035E+000	1.712965337773755E-001
1.3681320E+000	1.726450317974661E-001
1.3691163E+000	1.734408193711330E-001
1.3701174E+000	1.738805374365011E-001
1.3711131E+000	1.754083786408112E-001
1.3721086E+000	1.762234930445254E-001
1.3731124E+000	1.775391334335268E-001
1.3741237E+000	1.779976271423958E-001
1.3751161E+000	1.792864046669873E-001
1.3761165E+000	1.855905956866675E-001
1.3771272E+000	1.854985584817537E-001
1.3781229E+000	1.851841349085024E-001
1.3791207E+000	1.867860755068063E-001
1.3801110E+000	1.878459957837970E-001
1.3811156E+000	1.895094077875128E-001
1.3821205E+000	1.910634237666802E-001
1.3831260E+000	1.942831973224255E-001
1.3841398E+000	1.966121898923210E-001
1.3851224E+000	1.980616974400409E-001
1.3861395E+000	2.013001665944349E-001
1.3871467E+000	2.041019359479040E-001
1.3881543E+000	2.065115373107753E-001
1.3891319E+000	2.092595038869898E-001
1.3901458E+000	2.127279137816620E-001
1.3911417E+000	2.163488048798241E-001
1.3921353E+000	2.196011083242763E-001
1.3931326E+000	2.245127042465751E-001
1.3941343E+000	2.286487731979041E-001
1.3951482E+000	2.386389160384681E-001
1.3961360E+000	2.418267146078132E-001
1.3971422E+000	2.453316799628427E-001
1.3981309E+000	2.509984767302766E-001
1.3991230E+000	2.577220562478790E-001
1.4001268E+000	2.646854478578646E-001
1.4011488E+000	2.715491267386119E-001
1.4021498E+000	2.796249597243197E-001
1.4031434E+000	2.877225360189337E-001
1.4041377E+000	2.963999315268460E-001
1.4051241E+000	3.138024750843549E-001
1.4061313E+000	3.187962857177578E-001
1.4071214E+000	3.288157319982818E-001
1.4081290E+000	3.409583499650064E-001
1.4091331E+000	3.529168448464599E-001
1.4101427E+000	3.682834163366810E-001
1.4111322E+000	3.870585971485268E-001
1.4121441E+000	3.984830489715936E-001
1.4131452E+000	4.149832283769666E-001
1.4141501E+000	4.315453298533338E-001
1.4151497E+000	4.592876150536781E-001
1.4161550E+000	4.722778598388508E-001
1.4171631E+000	4.928336258486805E-001
1.4181626E+000	5.217869784514049E-001
1.4191442E+000	5.442995929984100E-001
1.4201542E+000	5.676954406029937E-001
1.4211648E+000	6.025881130766790E-001
1.4221400E+000	6.264015327581536E-001
1.4231405E+000	6.575120625607753E-001
1.4241463E+000	6.949111187860009E-001
1.4251554E+000	7.263207787585806E-001
1.4261290E+000	7.673443065822818E-001
1.4271487E+000	8.027184232525535E-001
1.4281369E+000	8.489199672358936E-001
1.4291443E+000	8.930712738612918E-001
1.4301516E+000	9.364366661883974E-001
1.4311478E+000	9.896841724223666E-001
1.4322091E+000	1.039275031488904E+000
1.4333103E+000	1.101539410464891E+000
1.4343125E+000	1.160527321475412E+000
1.4353085E+000	1.222196099920676E+000
1.4363097E+000	1.281594019355559E+000
1.4373046E+000	1.348048949609943E+000
1.4383032E+000	1.418883732991937E+000
1.4393193E+000	1.490004547456239E+000
1.4403079E+000	1.563740476121117E+000
1.4413043E+000	1.638584155861791E+000
1.4423066E+000	1.724328739544353E+000
1.4432985E+000	1.809687964193307E+000
1.4443160E+000	1.897576633883553E+000
1.4452977E+000	1.991607165571573E+000
1.4463123E+000	2.090702235270243E+000
1.4473251E+000	2.189522019530103E+000
1.4483364E+000	2.290982903421870E+000
1.4493363E+000	2.396935489687277E+000
1.4503174E+000	2.506479972968551E+000
1.4513339E+000	2.621998856117557E+000
1.4523213E+000	2.738473398172044E+000
1.4533261E+000	2.862221265810042E+000
1.4543133E+000	2.983286038259592E+000
1.4553275E+000	3.114990956772762E+000
1.4563309E+000	3.254725122803194E+000
1.4573132E+000	3.395335340349476E+000
1.4583234E+000	3.540017195120491E+000
1.4593021E+000	3.688275171312910E+000
1.4603274E+000	3.842807972837495E+000
1.4613274E+000	4.001120194894121E+000
1.4623263E+000	4.163575632718556E+000
1.4633329E+000	4.329370341202278E+000
1.4643400E+000	4.497441226088533E+000
1.4653398E+000	4.677478151425461E+000
1.4663326E+000	4.858383639869782E+000
1.4673295E+000	5.045703997923368E+000
1.4683464E+000	5.232118705552338E+000
1.4693601E+000	5.427979790535886E+000
1.4703321E+000	5.622176585434090E+000
1.4713222E+000	5.827830990161900E+000
1.4723270E+000	6.038066831359203E+000
1.4733458E+000	6.254386685378563E+000
1.4743273E+000	6.472729861060458E+000
1.4753300E+000	6.690565744988376E+000
1.4763304E+000	6.919770462780576E+000
1.4773260E+000	7.145629653688886E+000
1.4783216E+000	7.382113017192527E+000
1.4793378E+000	7.622092195964242E+000
1.4803216E+000	7.867151037838482E+000
1.4813246E+000	8.115587530590943E+000
1.4823059E+000	8.370250602901116E+000
1.4833182E+000	8.629285059951613E+000
1.4843178E+000	8.895356944156063E+000
1.4853202E+000	9.161456902188718E+000
1.4863062E+000	9.435584736857010E+000
1.4873173E+000	9.713565496782024E+000
1.4883249E+000	9.993002240755146E+000
1.4893146E+000	1.028240899660247E+001
1.4903027E+000	1.057369163007422E+001
1.4913718E+000	1.088789164942158E+001
1.4924927E+000	1.125453579400797E+001
1.4934788E+000	1.155853953292824E+001
1.4944896E+000	1.187229635675532E+001
1.4954878E+000	1.217893576277359E+001
1.4964753E+000	1.249898516082575E+001
1.4974824E+000	1.282747792742646E+001
1.4985064E+000	1.315399533559737E+001
1.4994872E+000	1.349747154116818E+001
1.5004760E+000	1.383223582655074E+001
1.5014952E+000	1.418161880914606E+001
1.5025063E+000	1.452884136768301E+001
1.5034928E+000	1.488513887870212E+001
1.5044929E+000	1.523666599262003E+001
1.5055022E+000	1.558667732717768E+001
1.5064981E+000	1.596923002031198E+001
1.5075133E+000	1.633441705525328E+001
1.5085090E+000	1.671591698749927E+001
1.5094999E+000	1.709546079436370E+001
1.5105135E+000	1.747093628070451E+001
1.5115297E+000	1.788047401600996E+001
1.5125233E+000	1.826598994696224E+001
1.5135238E+000	1.865550045914666E+001
1.5145221E+000	1.904046088957196E+001
1.5155331E+000	1.944563891733588E+001
1.5165253E+000	1.986325276641345E+001
1.5175329E+000	2.027306602912154E+001
1.5185175E+000	2.069541126634809E+001
1.5195422E+000	2.111539418419264E+001
1.5205549E+000	2.153705372507264E+001
1.5215647E+000	2.196233499490165E+001
1.5225518E+000	2.240395783120545E+001
1.5235468E+000	2.283210603370085E+001
1.5245491E+000	2.325592288151893E+001
1.5255520E+000	2.371456986105994E+001
1.5265473E+000	2.417607925822131E+001
1.5275558E+000	2.465192323139206E+001
1.5285460E+000	2.509704473758950E+001
1.5295414E+000	2.557640344722375E+001
1.5305541E+000	2.602085554761976E+001
1.5315489E+000	2.650749304154010E+001
1.5325466E+000	2.698215022784507E+001
1.5335635E+000	2.745743055071017E+001
1.5345629E+000	2.793733564093534E+001
1.5355456E+000	2.842303240633484E+001
1.5365472E+000	2.890449572058850E+001
1.5375702E+000	2.939254938258610E+001
1.5385426E+000	2.989587682654218E+001
1.5395701E+000	3.038293410253056E+001
1.5405754E+000	3.090303519334378E+001
1.5415727E+000	3.142886740307150E+001
1.5425800E+000	3.193437124669015E+001
1.5435647E+000	3.244733926586071E+001
1.5445596E+000	3.298066831883432E+001
1.5455821E+000	3.351524306019419E+001
1.5465758E+000	3.404264171725856E+001
1.5475727E+000	3.459101842157966E+001
1.5485810E+000	3.511949920639084E+001
1.5495752E+000	3.565072749342232E+001
1.5505708E+000	3.618711095417439E+001
1.5515674E+000	3.672611220088335E+001
1.5525597E+000	3.727823244711443E+001
1.5535674E+000	3.783930552005751E+001
1.5545732E+000	3.839967781891238E+001
1.5555668E+000	3.896649971617830E+001
1.5565779E+000	3.955248514513846E+001
1.5575752E+000	4.011520708330528E+001
1.5585704E+000	4.069257703768150E+001
1.5595832E+000	4.127433273390807E+001
1.5605816E+000	4.183623387623311E+001
1.5615768E+000	4.242978217751619E+001
1.5626026E+000	4.308358774650132E+001
1.5635874E+000	4.366756189950752E+001
1.5645993E+000	4.426516230962477E+001
1.5655863E+000	4.489509462332489E+001
1.5666058E+000	4.548825686307373E+001
1.5676118E+000	4.606936866212254E+001
1.5686144E+000	4.672982519262416E+001
1.5696027E+000	4.736135863203596E+001
1.5706222E+000	4.798476289983603E+001
1.5716228E+000	4.861457094106237E+001
1.5726289E+000	4.921248825255850E+001
1.5736333E+000	4.988818242801813E+001
1.5746365E+000	5.056450249075994E+001
1.5756313E+000	5.118765786410336E+001
1.5766420E+000	5.180599820662519E+001
1.5776355E+000	5.247883691267435E+001
1.5786662E+000	5.315226473118230E+001
1.5796207E+000	5.381599119270521E+001
1.5806365E+000	5.448693189486835E+001
1.5816466E+000	5.514589867336667E+001
1.5826441E+000	5.581906379809993E+001
1.5836685E+000	5.652436776871855E+001
1.5846527E+000	5.715841162129720E+001
1.5856533E+000	5.784603249995075E+001
1.5866411E+000	5.852581661403315E+001
1.5876567E+000	5.922093536447807E+001
1.5886576E+000	5.998619304343151E+001
1.5896488E+000	6.070543136694221E+001
1.5906703E+000	6.143834529598212E+001
1.5916797E+000	6.219045848631185E+001
1.5926514E+000	6.288003295403178E+001
1.5936604E+000	6.359008790792514E+001
1.5946561E+000	6.432803336808202E+001
1.5956460E+000	6.504762477250119E+001
1.5966649E+000	6.583118675437072E+001
1.5976624E+000	6.659714743542577E+001
1.5986549E+000	6.735111269974198E+001
1.5996665E+000	6.807747142052176E+001
1.6006538E+000	6.880115652041093E+001
1.6016548E+000	6.955544313768132E+001
1.6026599E+000	7.032572950659471E+001
1.6036671E+000	7.111835430338982E+001
1.6046711E+000	7.194301664423767E+001
1.6056602E+000	7.290830732581276E+001
1.6066718E+000	7.401713008105753E+001
1.6076691E+000	7.485668244653823E+001
1.6086799E+000	7.566991320164539E+001
1.6096439E+000	7.647899074745146E+001
1.6106741E+000	7.735303413480199E+001
1.6116791E+000	7.819318957068776E+001
1.6126822E+000	7.904781959552088E+001
1.6136864E+000	7.982674333613289E+001
1.6146773E+000	8.061980294424382E+001
1.6156855E+000	8.150794196128858E+001
1.6166823E+000	8.235349469519110E+001
1.6176864E+000	8.323684575851212E+001
1.6186999E+000	8.413037300802512E+001
1.6197073E+000	8.498326935200095E+001
1.6207052E+000	8.583085506491659E+001
1.6217023E+000	8.658097843193947E+001
1.6226976E+000	8.744264245790160E+001
1.6237017E+000	8.833334339719241E+001
1.6247016E+000	8.920713902772320E+001
1.6257205E+000	9.008656847170209E+001
1.6267090E+000	9.099883516521390E+001
1.6277204E+000	9.186678737361422E+001
1.6287210E+000	9.273250627788008E+001
1.6297175E+000	9.366019554001923E+001
1.6307091E+000	9.452189892063871E+001
1.6317225E+000	9.545771551541520E+001
1.6327251E+000	9.634140276676817E+001
1.6337212E+000	9.722686527753876E+001
1.6347077E+000	9.811580948170058E+001
1.6357372E+000	9.902547514587837E+001
1.6367301E+000	9.999210104916847E+001
1.6377410E+000	1.010199633852428E+002
1.6387457E+000	1.019600476743321E+002
1.6397591E+000	1.028532169561506E+002
1.6407562E+000	1.037071243935503E+002
1.6417550E+000	1.046715286042956E+002
1.6427470E+000	1.056105105672490E+002
1.6437577E+000	1.065432946606779E+002
1.6447657E+000	1.074665189794944E+002
1.6457696E+000	1.084308666259008E+002
1.6467633E+000	1.095251819530140E+002
1.6479248E+000	1.110099414038280E+002
1.6489192E+000	1.120449554808315E+002
1.6498929E+000	1.131626615619271E+002
1.6509138E+000	1.141456022693637E+002
1.6519186E+000	1.151218418052779E+002
1.6529291E+000	1.160758441882760E+002
1.6539315E+000	1.170396119381374E+002
1.6549156E+000	1.180762959254610E+002
1.6559478E+000	1.190608719698150E+002
1.6569446E+000	1.199714521187030E+002
1.6579415E+000	1.208842589168596E+002
1.6589472E+000	1.218792100752829E+002
1.6599302E+000	1.229662753420030E+002
1.6609586E+000	1.239667907681971E+002
1.6619431E+000	1.249975135403587E+002
1.6629446E+000	1.260557108985053E+002
1.6639434E+000	1.272960581412247E+002
1.6649503E+000	1.284650551637762E+002
1.6659527E+000	1.296194275650780E+002
1.6669617E+000	1.304863707018658E+002
1.6679657E+000	1.315804563401234E+002
1.6689606E+000	1.326991374346671E+002
1.6700009E+000	1.340184662593481E+002
1.6709874E+000	1.351220537061661E+002
1.6719918E+000	1.363855769034144E+002
1.6730076E+000	1.375117001943240E+002
1.6740042E+000	1.385448151371320E+002
1.6750103E+000	1.397820305272214E+002
1.6760164E+000	1.408713419875326E+002
1.6770141E+000	1.419252887516909E+002
1.6780245E+000	1.429320527362152E+002
1.6790253E+000	1.440331421736591E+002
1.6800340E+000	1.452264712422219E+002
1.6810325E+000	1.463327519072718E+002
1.6820471E+000	1.474266327201219E+002
1.6830238E+000	1.485081930067533E+002
1.6840392E+000	1.494547569517317E+002
1.6850435E+000	1.504629834529749E+002
1.6860529E+000	1.514667479394873E+002
1.6870300E+000	1.525413698829700E+002
1.6880522E+000	1.536417656264964E+002
1.6890558E+000	1.547947433854451E+002
1.6900697E+000	1.557883786717014E+002
1.6910516E+000	1.569197366491196E+002
1.6920470E+000	1.580884883563826E+002
1.6930664E+000	1.592701294319429E+002
1.6940618E+000	1.605436070376784E+002
1.6950632E+000	1.618180664252607E+002
1.6960547E+000	1.628930177110456E+002
1.6970489E+000	1.637793131069029E+002
1.6980630E+000	1.647890771532814E+002
1.6990533E+000	1.658337587055980E+002
1.7000679E+000	1.672287768311596E+002
1.7010689E+000	1.685454739944907E+002
1.7020860E+000	1.696189576925332E+002
1.7030898E+000	1.707059747064475E+002
1.7040883E+000	1.719814335616927E+002
1.7050943E+000	1.732246390946837E+002
1.7060801E+000	1.743847535175141E+002
1.7070946E+000	1.754582550693260E+002
1.7080967E+000	1.764092124238309E+002
1.7090871E+000	1.773250392205737E+002
1.7100978E+000	1.782605862758055E+002
1.7110940E+000	1.794518585302400E+002
1.7120931E+000	1.806488230561959E+002
1.7130784E+000	1.818964656672542E+002
1.7141171E+000	1.832018515896189E+002
1.7151138E+000	1.844081444599726E+002
1.7161092E+000	1.854552840603837E+002
1.7171081E+000	1.864824629316527E+002
1.7181119E+000	1.878824012808190E+002
1.7191210E+000	1.890418967324858E+002
1.7201244E+000	1.901579301640346E+002
1.7211275E+000	1.913889250323232E+002
1.7221209E+000	1.925016563560421E+002
1.7231395E+000	1.935316984317856E+002
1.7241317E+000	1.945672133484666E+002
1.7251314E+000	1.956233352739227E+002
1.7261518E+000	1.967874864725700E+002
1.7271509E+000	1.979122475392203E+002
1.7281343E+000	1.994840786367067E+002
1.7291387E+000	2.007712049505644E+002
1.7301444E+000	2.015568186662522E+002
1.7311512E+000	2.024586491224342E+002
1.7321377E+000	2.038029897296992E+002
1.7331625E+000	2.054429225579051E+002
1.7338040E+000	2.062988231476538E+002
1.7341084E+000	2.067699688704106E+002
1.7344086E+000	2.070359869202857E+002
1.7347802E+000	2.073641427948273E+002
1.7352258E+000	2.077580099207202E+002
1.7355324E+000	2.080678916689644E+002
1.7356761E+000	2.083330107446770E+002
1.7359992E+000	2.086288972503685E+002
1.7364986E+000	2.094002304661321E+002
1.7369531E+000	2.100977937177277E+002
1.7373242E+000	2.106541250971945E+002
1.7378348E+000	2.110894480126046E+002
1.7383749E+000	2.114199758746208E+002
1.7387850E+000	2.120499685517825E+002
1.7392918E+000	2.125962562279408E+002
1.7396481E+000	2.131207942750925E+002
1.7400082E+000	2.137985341289518E+002
1.7403408E+000	2.140608614047314E+002
1.7404387E+000	2.143007003433172E+002
1.7406787E+000	2.144768907737634E+002
1.7411902E+000	2.149079199725065E+002
1.7416350E+000	2.154078562591931E+002
1.7420332E+000	2.158005605922449E+002
1.7424493E+000	2.162264397710153E+002
1.7430192E+000	2.166964084119788E+002
1.7433358E+000	2.169062811708985E+002
1.7434874E+000	2.171564469617156E+002
1.7437530E+000	2.173423402721551E+002
1.7440740E+000	2.178145889239069E+002
1.7444452E+000	2.181992547933469E+002
1.7446691E+000	2.184324302333689E+002
1.7450163E+000	2.186751816542278E+002
1.7453151E+000	2.189673077332818E+002
1.7455922E+000	2.191477501934839E+002
1.7459220E+000	2.194551237883902E+002
1.7463812E+000	2.198079667446774E+002
1.7469498E+000	2.204722824771752E+002
1.7472392E+000	2.213234288311326E+002
1.7473047E+000	2.215068111963524E+002
1.7476735E+000	2.218832919319120E+002
1.7480806E+000	2.223301025249684E+002
1.7483778E+000	2.227968400613918E+002
1.7487408E+000	2.233336643248431E+002
1.7492003E+000	2.239358328538015E+002
1.7496172E+000	2.244242783832351E+002
1.7500600E+000	2.249498063187502E+002
1.7505643E+000	2.255519109288650E+002
1.7510695E+000	2.262157591385696E+002
1.7515742E+000	2.266065833198931E+002
1.7518696E+000	2.269535746312818E+002
1.7522360E+000	2.273560084976298E+002
1.7527498E+000	2.279315787579085E+002
1.7529851E+000	2.280161799523567E+002
1.7530003E+000	2.280658188166599E+002
1.7530919E+000	2.281517155965169E+002
1.7532877E+000	2.284109002991572E+002
1.7534939E+000	2.286513951619465E+002
1.7536705E+000	2.287885889727095E+002
1.7538072E+000	2.288819509281047E+002
1.7540585E+000	2.290145350152043E+002
1.7542822E+000	2.292812397712482E+002
1.7543751E+000	2.293919878930337E+002
1.7547090E+000	2.296612219131723E+002
1.7551441E+000	2.302271158284548E+002
1.7555652E+000	2.309341637091006E+002
1.7560265E+000	2.315843692717078E+002
1.7562199E+000	2.320091339275123E+002
1.7562979E+000	2.320480395555496E+002
1.7563115E+000	2.320603340003224E+002
1.7563218E+000	2.320656456549968E+002
1.7563232E+000	2.320575762987132E+002
1.7566848E+000	2.322400201013666E+002
1.7570853E+000	2.325240113474852E+002
1.7574207E+000	2.328550516937366E+002
1.7578084E+000	2.333488818206515E+002
1.7581320E+000	2.336994084750781E+002
1.7585248E+000	2.339936753699185E+002
1.7589836E+000	2.344130028530803E+002
1.7593907E+000	2.350000506762890E+002
1.7598784E+000	2.359573314696163E+002
1.7603087E+000	2.368810663369850E+002
1.7606084E+000	2.369970900970229E+002
1.7609320E+000	2.372931110085278E+002
1.7612892E+000	2.375819127280679E+002
1.7616556E+000	2.380440047179455E+002
1.7620213E+000	2.384637340680129E+002
1.7624288E+000	2.387884679455433E+002
1.7627919E+000	2.392316276649812E+002
1.7630666E+000	2.398871327075703E+002
1.7633140E+000	2.401021581412896E+002
1.7636347E+000	2.403471626267810E+002
1.7637907E+000	2.405353581403870E+002
1.7641513E+000	2.409812840643822E+002
1.7645820E+000	2.415821741880422E+002
1.7650504E+000	2.420199685415960E+002
1.7653612E+000	2.422871800838184E+002
1.7657098E+000	2.429780233662432E+002
1.7659163E+000	2.436076317330201E+002
1.7661393E+000	2.438458187721553E+002
1.7665367E+000	2.443437476652668E+002
1.7669492E+000	2.447054022493639E+002
1.7674752E+000	2.449986925616213E+002
1.7679520E+000	2.454837188895654E+002
1.7683616E+000	2.459334001966718E+002
1.7687492E+000	2.463263940263259E+002
1.7687800E+000	2.464780668119593E+002
1.7689943E+000	2.465048211536556E+002
1.7692733E+000	2.468658120037917E+002
1.7696426E+000	2.472401494696969E+002
1.7699825E+000	2.477308551857905E+002
1.7701072E+000	2.482293056911890E+002
1.7701482E+000	2.482891090247374E+002
1.7702466E+000	2.483055978523903E+002
1.7704576E+000	2.485364131338029E+002
1.7707517E+000	2.489817511489046E+002
1.7711595E+000	2.494381647276050E+002
1.7716261E+000	2.497809652557912E+002
1.7720746E+000	2.501887861019586E+002
1.7725846E+000	2.505356279128724E+002
1.7731285E+000	2.508089578308532E+002
1.7735860E+000	2.512831217475446E+002
1.7740314E+000	2.518730153058348E+002
1.7743511E+000	2.521491424374822E+002
1.7746230E+000	2.523701950795543E+002
1.7750167E+000	2.527148216211590E+002
1.7754101E+000	2.529324244304871E+002
1.7759559E+000	2.532773142732108E+002
1.7764280E+000	2.536857003700093E+002
1.7767814E+000	2.540500045004601E+002
1.7771842E+000	2.543812533811263E+002
1.7776418E+000	2.546865863111093E+002
1.7779534E+000	2.551259293848157E+002
1.7782066E+000	2.553089503603455E+002
1.7787492E+000	2.556280351808006E+002
1.7789730E+000	2.557523885501760E+002
1.7790992E+000	2.558365323733853E+002
1.7794487E+000	2.564694219014982E+002
1.7797391E+000	2.568224238798111E+002
1.7802650E+000	2.571245337126647E+002
1.7805516E+000	2.573461016489647E+002
1.7807678E+000	2.576107229595691E+002
1.7810669E+000	2.579650796485785E+002
1.7814895E+000	2.582277572752205E+002
1.7819767E+000	2.586432475571407E+002
1.7823063E+000	2.591629871416362E+002
1.7825401E+000	2.597081696912928E+002
1.7827665E+000	2.600512437046932E+002
1.7832676E+000	2.606715640120447E+002
1.7836449E+000	2.611066894488658E+002
1.7840325E+000	2.614666207179557E+002
1.7843754E+000	2.616683342150694E+002
1.7843913E+000	2.617509228587151E+002
1.7846211E+000	2.618203442380687E+002
1.7848607E+000	2.618026777425139E+002
1.7851210E+000	2.620578939267602E+002
1.7854245E+000	2.622382754205905E+002
1.7855767E+000	2.626393774156982E+002
1.7856457E+000	2.629904161592323E+002
1.7858504E+000	2.632322674166534E+002
1.7863690E+000	2.636199287228760E+002
1.7870059E+000	2.639834373604535E+002
1.7874620E+000	2.644289509267555E+002
1.7877680E+000	2.647547994159759E+002
1.7880419E+000	2.654866061531477E+002
1.7883276E+000	2.662134111837418E+002
1.7887828E+000	2.666902502115502E+002
1.7892878E+000	2.672132290517227E+002
1.7898571E+000	2.676667128253653E+002
1.7901242E+000	2.679210837880773E+002
1.7903486E+000	2.681017476495749E+002
1.7907244E+000	2.690136147775784E+002
1.7911869E+000	2.695624635758127E+002
1.7917309E+000	2.700729712523821E+002
1.7921437E+000	2.705689935556265E+002
1.7925214E+000	2.714544921171992E+002
1.7928313E+000	2.729695398979397E+002
1.7931138E+000	2.740856599187405E+002
1.7934883E+000	2.744401174720638E+002
1.7938782E+000	2.748537028938413E+002
1.7942014E+000	2.753827459348263E+002
1.7945976E+000	2.756078266583963E+002
1.7946235E+000	2.756009172929662E+002
1.7946373E+000	2.755888100928732E+002
1.7948418E+000	2.757151996809698E+002
1.7951859E+000	2.761239264130827E+002
1.7957429E+000	2.764766811265438E+002
1.7962979E+000	2.768691333622592E+002
1.7967190E+000	2.769356645938219E+002
1.7971678E+000	2.772973565781795E+002
1.7975180E+000	2.779537397166569E+002
1.7976235E+000	2.783051240880641E+002
1.7980350E+000	2.782440512170742E+002
1.7987379E+000	2.783918240803614E+002
1.7990922E+000	2.785829812097654E+002
1.7993553E+000	2.789081757645704E+002
1.7995124E+000	2.789996682471706E+002
1.7995450E+000	2.789892593092385E+002
1.7998320E+000	2.793373832881380E+002
1.8002452E+000	2.798440659957405E+002
1.8004414E+000	2.802193865312474E+002
1.8006129E+000	2.803082841896362E+002
1.8011452E+000	2.805763323351393E+002
1.8017796E+000	2.808338595868349E+002
1.8021806E+000	2.811441544149711E+002
1.8025842E+000	2.814961629209438E+002
1.8027866E+000	2.817172919044901E+002
1.8030467E+000	2.819449721034789E+002
1.8033944E+000	2.824327970977113E+002
1.8039073E+000	2.831712549180793E+002
1.8042145E+000	2.834277733746540E+002
1.8046287E+000	2.836065323264802E+002
1.8050178E+000	2.837734580371334E+002
1.8051379E+000	2.837182690501218E+002
1.8053310E+000	2.839087570452866E+002
1.8057593E+000	2.840578422405915E+002
1.8059956E+000	2.842162688936141E+002
1.8062060E+000	2.844557317577801E+002
1.8064013E+000	2.846677830020587E+002
1.8064965E+000	2.847797205689444E+002
1.8065974E+000	2.849585541122497E+002
1.8067043E+000	2.851083584745502E+002
1.8070689E+000	2.854407307661099E+002
1.8074973E+000	2.858023085045331E+002
1.8078731E+000	2.861716819399180E+002
1.8079450E+000	2.863322723739684E+002
1.8080281E+000	2.863882665665351E+002
1.8082299E+000	2.865907328614917E+002
1.8083603E+000	2.866275210910380E+002
1.8087579E+000	2.867839625895651E+002
1.8092163E+000	2.872383906952637E+002
1.8096199E+000	2.874881023973312E+002
1.8100610E+000	2.877988240623881E+002
1.8105680E+000	2.882717806579421E+002
1.8107779E+000	2.883759618765780E+002
1.8109380E+000	2.885354949372143E+002
1.8111202E+000	2.888758812938145E+002
1.8112276E+000	2.891795936789783E+002
1.8113924E+000	2.892682350003706E+002
1.8116341E+000	2.897554663988308E+002
1.8119222E+000	2.897544945111222E+002
1.8121363E+000	2.897908539022064E+002
1.8122575E+000	2.898828544089811E+002
1.8125201E+000	2.901179230275391E+002
1.8128859E+000	2.904791468811627E+002
1.8134093E+000	2.909856026624784E+002
1.8138957E+000	2.917243658983911E+002
1.8142971E+000	2.925966870663765E+002
1.8148600E+000	2.934600576888611E+002
1.8153627E+000	2.943469962976806E+002
1.8157827E+000	2.944085157120808E+002
1.8162440E+000	2.942120013742810E+002
1.8165287E+000	2.942297822685741E+002
1.8166964E+000	2.942649120660635E+002
1.8169754E+000	2.948820630189648E+002
1.8175544E+000	2.950722201418539E+002
1.8180811E+000	2.953797583684623E+002
1.8184041E+000	2.956966305659989E+002
1.8188828E+000	2.959102266275067E+002
1.8191835E+000	2.960510873908711E+002
1.8193445E+000	2.960657314875095E+002
1.8195603E+000	2.960305922247262E+002
1.8200065E+000	2.960678677337248E+002
1.8202747E+000	2.965353170850485E+002
1.8205661E+000	2.971986615823234E+002
1.8210691E+000	2.971872824793227E+002
1.8215923E+000	2.974436032526667E+002
1.8220341E+000	2.976616871620618E+002
1.8223042E+000	2.977673623507153E+002
1.8224506E+000	2.979958545127574E+002
1.8226854E+000	2.982655717910784E+002
1.8230762E+000	2.985615338214920E+002
1.8232766E+000	2.988676991429602E+002
1.8233957E+000	2.989421445443518E+002
1.8237396E+000	2.992926723770634E+002
1.8241937E+000	3.000382165356596E+002
1.8244009E+000	3.004040917058792E+002
1.8244193E+000	3.005111918482517E+002
1.8246188E+000	3.005365652251930E+002
1.8250080E+000	3.008057607044152E+002
1.8251383E+000	3.012378212180397E+002
1.8255279E+000	3.013632241706391E+002
1.8260323E+000	3.018313210166325E+002
1.8263427E+000	3.020923076811287E+002
1.8265353E+000	3.022796868608052E+002
1.8268589E+000	3.026676085636050E+002
1.8270842E+000	3.033275285628106E+002
1.8271437E+000	3.033669156471610E+002
1.8274417E+000	3.036624213908067E+002
1.8278868E+000	3.042564738478027E+002
1.8283585E+000	3.050389087001579E+002
1.8285118E+000	3.053638118935951E+002
1.8286704E+000	3.053236407551474E+002
1.8290819E+000	3.055016852300064E+002
1.8296249E+000	3.056609194856028E+002
1.8299356E+000	3.056331425126832E+002
1.8300980E+000	3.056450766619432E+002
1.8301532E+000	3.057235229611397E+002
1.8302600E+000	3.059889514922369E+002
1.8303752E+000	3.076047683424425E+002
1.8306657E+000	3.091318870899149E+002
1.8310922E+000	3.097299891341027E+002
1.8313141E+000	3.103354448926088E+002
1.8316381E+000	3.106127274218002E+002
1.8322209E+000	3.108104922377524E+002
1.8326457E+000	3.108933044013029E+002
1.8327733E+000	3.107607137627674E+002
1.8330005E+000	3.110077686795630E+002
1.8332323E+000	3.114385049065254E+002
1.8336335E+000	3.115240106742735E+002
1.8340939E+000	3.119934462428482E+002
1.8346686E+000	3.122441209892286E+002
1.8351221E+000	3.129049934400205E+002
1.8356302E+000	3.131299388933330E+002
1.8361301E+000	3.134899367473854E+002
1.8367798E+000	3.137483011599261E+002
1.8372337E+000	3.137968469872721E+002
1.8374619E+000	3.139520905413183E+002
1.8375798E+000	3.142035597557278E+002
1.8376458E+000	3.142613419337049E+002
1.8379745E+000	3.144647597861290E+002
1.8383324E+000	3.151555884461677E+002
1.8384777E+000	3.152656164198588E+002
1.8387890E+000	3.153592141391837E+002
1.8393930E+000	3.158171082183890E+002
1.8398942E+000	3.163231118185695E+002
1.8401704E+000	3.165257368418916E+002
1.8401755E+000	3.165151374671192E+002
1.8401942E+000	3.164612746900988E+002
1.8404350E+000	3.164974700675509E+002
1.8409060E+000	3.165387816597336E+002
1.8413979E+000	3.164816941751819E+002
1.8420594E+000	3.165262218413714E+002
1.8426511E+000	3.168464248402124E+002
1.8429841E+000	3.173283503253433E+002
1.8433791E+000	3.177588047422860E+002
1.8438143E+000	3.193325871863935E+002
1.8441249E+000	3.222954346808306E+002
1.8443971E+000	3.230135308007884E+002
1.8447711E+000	3.236765751357345E+002
1.8450782E+000	3.240159382569254E+002
1.8454655E+000	3.245579838067799E+002
1.8460373E+000	3.250821364685116E+002
1.8464257E+000	3.253062715359526E+002
1.8467026E+000	3.259790967491721E+002
1.8469121E+000	3.258337910970058E+002
1.8471653E+000	3.260255568952662E+002
1.8475187E+000	3.264266943450768E+002
1.8476250E+000	3.270017541646966E+002
1.8478314E+000	3.271954442552824E+002
1.8482851E+000	3.271926874566020E+002
1.8485489E+000	3.274947141882285E+002
1.8488349E+000	3.283111823212962E+002
1.8493038E+000	3.287489158304415E+002
1.8495774E+000	3.287780322896106E+002
1.8496634E+000	3.287424616124773E+002
1.8501374E+000	3.284403672755507E+002
1.8507895E+000	3.285137104047853E+002
1.8515583E+000	3.284470835749289E+002
1.8520163E+000	3.286448236621436E+002
1.8522286E+000	3.289537135135879E+002
1.8526024E+000	3.290374524753652E+002
1.8529892E+000	3.288513795763974E+002
1.8535205E+000	3.290151568892688E+002
1.8538052E+000	3.288981265677985E+002
1.8539933E+000	3.289565763730125E+002
1.8545432E+000	3.291856568110979E+002
1.8550133E+000	3.297114785418662E+002
1.8552773E+000	3.299764959627814E+002
1.8557376E+000	3.301520987651813E+002
1.8562107E+000	3.302826671415187E+002
1.8565801E+000	3.304860523365080E+002
1.8570826E+000	3.306837923149487E+002
1.8576466E+000	3.312144034518215E+002
1.8580819E+000	3.317005770010219E+002
1.8584002E+000	3.323151298782295E+002
1.8586493E+000	3.328304701539332E+002
1.8587312E+000	3.334355432854752E+002
1.8587543E+000	3.334913196431262E+002
1.8588487E+000	3.334126373857043E+002
1.8591101E+000	3.334013470379068E+002
1.8595145E+000	3.341575583244367E+002
1.8599681E+000	3.344244972472079E+002
1.8603426E+000	3.346418860763779E+002
1.8608766E+000	3.346764868830942E+002
1.8614910E+000	3.351701316645413E+002
1.8619014E+000	3.359010040873452E+002
1.8622228E+000	3.362474713470397E+002
1.8626262E+000	3.357664932417883E+002
1.8631659E+000	3.358443330046512E+002
1.8636837E+000	3.360466587338281E+002
1.8639644E+000	3.365030253894261E+002
1.8642408E+000	3.368768545300909E+002
1.8647393E+000	3.372813069061049E+002
1.8651971E+000	3.377149940426209E+002
1.8654605E+000	3.381710060152345E+002
1.8654782E+000	3.382182170417564E+002
1.8654711E+000	3.381918877495664E+002
1.8655716E+000	3.381928134839875E+002
1.8657789E+000	3.383788153140551E+002
1.8661768E+000	3.383556148867042E+002
1.8667065E+000	3.385977151031088E+002
1.8671546E+000	3.395683588132513E+002
1.8674035E+000	3.400196898696140E+002
1.8675798E+000	3.400311693555577E+002
1.8677392E+000	3.398367230147996E+002
1.8680910E+000	3.399430113031212E+002
1.8685493E+000	3.396961424516808E+002
1.8690928E+000	3.397388428099230E+002
1.8695816E+000	3.404301110471592E+002
1.8701547E+000	3.408774356226836E+002
1.8705128E+000	3.412646331137312E+002
1.8708311E+000	3.416387935577246E+002
1.8710108E+000	3.423232934342823E+002
1.8713706E+000	3.430407618982881E+002
1.8718020E+000	3.433425536246577E+002
1.8723940E+000	3.436115580640708E+002
1.8730050E+000	3.441120181978995E+002
1.8734024E+000	3.439641802612987E+002
1.8737090E+000	3.439789767175939E+002
1.8740579E+000	3.438456135420581E+002
1.8743758E+000	3.436871720386380E+002
1.8749255E+000	3.439746582615253E+002
1.8754755E+000	3.444441785355943E+002
1.8758540E+000	3.443688307598454E+002
1.8759553E+000	3.444733801947705E+002
1.8760544E+000	3.446213703634623E+002
1.8763129E+000	3.448229442614543E+002
1.8765699E+000	3.453636066853323E+002
1.8768142E+000	3.456262105352525E+002
1.8770382E+000	3.457904628739595E+002
1.8771663E+000	3.457466405426489E+002
1.8774614E+000	3.457840692091422E+002
1.8780042E+000	3.454170329096241E+002
1.8785542E+000	3.454116073410742E+002
1.8788471E+000	3.451419886484864E+002
1.8789343E+000	3.450365063548084E+002
1.8792335E+000	3.452837081726730E+002
1.8797535E+000	3.459049931213417E+002
1.8801920E+000	3.462281589378435E+002
1.8806666E+000	3.463156995802888E+002
1.8809479E+000	3.463616440237192E+002
1.8814459E+000	3.464003158108089E+002
1.8820124E+000	3.462925318801072E+002
1.8822821E+000	3.464939754207935E+002
1.8824824E+000	3.465593965494827E+002
1.8827978E+000	3.468351485686781E+002
1.8829139E+000	3.473692864312061E+002
1.8829255E+000	3.473618632819907E+002
1.8830454E+000	3.473995890945744E+002
1.8834437E+000	3.482710977918887E+002
1.8838966E+000	3.482692626972212E+002
1.8842658E+000	3.475340857540346E+002
1.8845211E+000	3.475199840081564E+002
1.8847207E+000	3.476820069349865E+002
1.8848104E+000	3.478826624058420E+002
1.8850411E+000	3.486071460150355E+002
1.8852623E+000	3.490836587475169E+002
1.8855598E+000	3.492815394612007E+002
1.8860878E+000	3.497481949255703E+002
1.8867424E+000	3.498773042212724E+002
1.8871073E+000	3.502827462054776E+002
1.8873447E+000	3.513654052654319E+002
1.8877666E+000	3.522035416663657E+002
1.8882108E+000	3.523110855007953E+002
1.8886836E+000	3.521496587965584E+002
1.8892211E+000	3.525800166739617E+002
1.8895688E+000	3.527023215919844E+002
1.8898387E+000	3.526871964253293E+002
1.8903610E+000	3.530714049651806E+002
1.8905814E+000	3.536756237825803E+002
1.8909309E+000	3.541449031951820E+002
1.8915367E+000	3.539884827315982E+002
1.8921007E+000	3.538918218200652E+002
1.8925813E+000	3.537235804920756E+002
1.8931009E+000	3.534623430515561E+002
1.8937072E+000	3.532230910989501E+002
1.8941587E+000	3.539079452525639E+002
1.8945311E+000	3.539854998487262E+002
1.8948084E+000	3.538042918453170E+002
1.8951398E+000	3.539020393857065E+002
1.8953902E+000	3.543251631237576E+002
1.8957222E+000	3.546071611847246E+002
1.8962564E+000	3.551884195067946E+002
1.8967692E+000	3.555058782588712E+002
1.8970575E+000	3.558632395990999E+002
1.8975707E+000	3.560821052139754E+002
1.8980218E+000	3.562180835021691E+002
1.8985434E+000	3.557380889861379E+002
1.8991332E+000	3.559268065270735E+002
1.8996090E+000	3.559418013196056E+002
1.9000657E+000	3.558639234920321E+002
1.9005563E+000	3.563050276996742E+002
1.9008232E+000	3.568175127583163E+002