Ewe/V	<I>/mA	
1.3838376E+000	0.000000000000000E+000
1.3799335E+000	0.000000000000000E+000
1.2308509E+000	-8.210871632610051E+000
1.2330528E+000	-7.352328451418249E-001
1.2363776E+000	-1.832987374647899E-001
1.2397240E+000	-9.535440930234595E-002
1.2430393E+000	-5.351905670605039E-002
1.2463928E+000	-2.752564623615328E-002
1.2497003E+000	-8.806882718583320E-003
1.2530341E+000	5.019019522876755E-003
1.2563851E+000	1.627761688724840E-002
1.2597007E+000	2.486238016636177E-002
1.2630420E+000	3.255549313021855E-002
1.2663751E+000	3.881623123319466E-002
1.2696959E+000	4.440766821479558E-002
1.2730381E+000	4.843139370687521E-002
1.2763680E+000	5.233507398621251E-002
1.2796971E+000	5.604065890207116E-002
1.2830368E+000	5.888894061850647E-002
1.2863706E+000	6.187025220749942E-002
1.2896903E+000	6.360746951420376E-002
1.2930096E+000	6.607887674619350E-002
1.2963572E+000	6.791927476789317E-002
1.2996904E+000	6.981514252351340E-002
1.3030431E+000	7.150304477304670E-002
1.3063583E+000	7.254164082343428E-002
1.3097081E+000	7.402880360580610E-002
1.3130312E+000	7.539094221216690E-002
1.3163745E+000	7.641142812675850E-002
1.3197057E+000	7.779811785293567E-002
1.3230226E+000	7.886875464148235E-002
1.3263521E+000	7.984155914601376E-002
1.3296864E+000	8.123211275326270E-002
1.3330332E+000	8.243180277165174E-002
1.3363664E+000	8.359386024117717E-002
1.3396949E+000	8.516760368342635E-002
1.3430452E+000	8.638902535839565E-002
1.3463670E+000	8.788669181993164E-002
1.3496870E+000	8.931607561669197E-002
1.3530403E+000	9.106502031615360E-002
1.3563795E+000	9.267180849707923E-002
1.3597093E+000	9.457344506383308E-002
1.3630456E+000	9.741136584795040E-002
1.3663888E+000	1.001685629200111E-001
1.3697385E+000	1.024401698007344E-001
1.3730834E+000	1.057254966784263E-001
1.3764006E+000	1.101282868452373E-001
1.3797320E+000	1.145547268537360E-001
1.3830901E+000	1.206865303088749E-001
1.3864172E+000	1.273882038143901E-001
1.3897436E+000	1.357737062368412E-001
1.3930844E+000	1.457607569449004E-001
1.3964053E+000	1.583106635036313E-001
1.3997396E+000	1.735703626362923E-001
1.4030749E+000	1.928003114805209E-001
1.4063865E+000	2.161023685176060E-001
1.4097319E+000	2.450757570388857E-001
1.4130658E+000	2.801671073415930E-001
1.4163748E+000	3.228794116285094E-001
1.4197181E+000	3.759035170629054E-001
1.4230434E+000	4.381022839542599E-001
1.4263744E+000	5.135510040632241E-001
1.4297121E+000	6.020505366726314E-001
1.4330251E+000	7.061655552823947E-001
1.4363598E+000	8.282833103121985E-001
1.4396993E+000	9.713741785033569E-001
1.4430819E+000	1.135055916538429E+000
1.4463938E+000	1.320184324714312E+000
1.4497236E+000	1.528483479948090E+000
1.4530443E+000	1.761440709637384E+000
1.4563899E+000	2.019106674582368E+000
1.4597198E+000	2.305420196404416E+000
1.4630551E+000	2.617497526902731E+000
1.4663721E+000	2.955992987805985E+000
1.4697180E+000	3.323207155948770E+000
1.4730263E+000	3.715813427448536E+000
1.4763778E+000	4.133729632906025E+000
1.4796972E+000	4.578777804772993E+000
1.4830415E+000	5.049101286004955E+000
1.4863677E+000	5.540511274850587E+000
1.4896950E+000	6.058661837021077E+000
1.4930304E+000	6.599964993166921E+000
1.4963719E+000	7.163059566453484E+000
1.4997082E+000	7.747673797820767E+000
1.5030055E+000	8.349861745168113E+000
1.5063324E+000	8.976041627906213E+000
1.5096866E+000	9.620878530709774E+000
1.5129975E+000	1.028584586331652E+001
1.5163838E+000	1.098948738725898E+001
1.5197424E+000	1.170256218903276E+001
1.5230638E+000	1.242144471586019E+001
1.5263978E+000	1.315762042533365E+001
1.5297146E+000	1.391305369859073E+001
1.5330629E+000	1.468681835189790E+001
1.5364060E+000	1.547367148771281E+001
1.5397348E+000	1.627494781696001E+001
1.5430424E+000	1.709368087496719E+001
1.5463892E+000	1.792273895236371E+001
1.5497124E+000	1.876966288128789E+001
1.5530400E+000	1.962700018223336E+001
1.5563706E+000	2.049903457463714E+001
1.5597097E+000	2.138808389737443E+001
1.5630320E+000	2.228953960054142E+001
1.5663643E+000	2.319882209182119E+001
1.5697016E+000	2.412413572297299E+001
1.5730540E+000	2.505892348302621E+001
1.5763814E+000	2.601086927306460E+001
1.5797157E+000	2.696897984378620E+001
1.5830495E+000	2.793744487004538E+001
1.5863917E+000	2.891981592487014E+001
1.5897027E+000	2.991549426149061E+001
1.5930402E+000	3.091875224567912E+001
1.5963674E+000	3.193121714926006E+001
1.5997082E+000	3.295970398477334E+001
1.6030341E+000	3.399366671624210E+001
1.6063696E+000	3.504086703456109E+001
1.6097039E+000	3.609849441962399E+001
1.6130598E+000	3.717001362629986E+001
1.6163745E+000	3.824653967171977E+001
1.6197330E+000	3.933625166963009E+001
1.6230645E+000	4.043198154838137E+001
1.6263971E+000	4.153976214380725E+001
1.6297207E+000	4.268061318648290E+001
1.6330541E+000	4.379763040293692E+001
1.6363789E+000	4.494158261486746E+001
1.6397222E+000	4.609296918821701E+001
1.6430513E+000	4.725584861162827E+001
1.6464031E+000	4.842862019012597E+001
1.6497362E+000	4.959523079939368E+001
1.6530772E+000	5.077780532017497E+001
1.6564057E+000	5.197214944634698E+001
1.6597335E+000	5.317804380015465E+001
1.6631001E+000	5.438916111488459E+001
1.6664184E+000	5.561147976849679E+001
1.6697401E+000	5.682884882095743E+001
1.6730762E+000	5.805770778590863E+001
1.6764125E+000	5.929686570781519E+001
1.6797233E+000	6.054410280903289E+001
1.6830727E+000	6.179582868150123E+001
1.6864240E+000	6.303837627165962E+001
1.6897447E+000	6.433354462075317E+001
1.6930858E+000	6.561352363793617E+001
1.6964210E+000	6.690226098627988E+001
1.6997331E+000	6.819080549544196E+001
1.7030793E+000	6.949437221583935E+001
1.7064538E+000	7.081939083948475E+001
1.7098014E+000	7.219522990330029E+001
1.7131113E+000	7.351657842852487E+001
1.7164531E+000	7.485671002379013E+001
1.7197716E+000	7.631739272457980E+001
1.7231228E+000	7.764459484758891E+001
1.7264450E+000	7.898165867708019E+001
1.7297869E+000	8.032728290730620E+001
1.7331277E+000	8.168209313036823E+001
1.7364620E+000	8.305965287435379E+001
1.7397933E+000	8.443586039580146E+001
1.7431188E+000	8.583179240626964E+001
1.7464570E+000	8.725275387839500E+001
1.7498037E+000	8.874266595274207E+001
1.7531189E+000	9.006963490933856E+001
1.7564329E+000	9.144830417621313E+001
1.7597725E+000	9.282941744891991E+001
1.7631241E+000	9.424570675531140E+001
1.7664402E+000	9.566445436726417E+001
1.7697883E+000	9.715554160993997E+001
1.7731284E+000	9.859549611699606E+001
1.7764463E+000	1.000172484851566E+002
1.7798060E+000	1.014413144803875E+002
1.7831461E+000	1.029078270153677E+002
1.7864597E+000	1.043765125438606E+002
1.7897850E+000	1.058333641424738E+002
1.7931275E+000	1.073235673526601E+002
1.7964439E+000	1.089066461945762E+002
1.7998368E+000	1.105029422057603E+002
1.8031825E+000	1.120033305828756E+002
1.8065227E+000	1.134520042605002E+002
1.8098484E+000	1.149329710388788E+002
1.8131810E+000	1.164021428657038E+002
1.8165058E+000	1.178698063279339E+002
1.8198349E+000	1.193896197738677E+002
1.8231742E+000	1.208637901957800E+002
1.8265316E+000	1.222146797571409E+002
1.8298579E+000	1.237485955998268E+002
1.8331896E+000	1.251991940649033E+002
1.8365135E+000	1.267133983569061E+002
1.8398474E+000	1.281747589897674E+002
1.8431896E+000	1.298980272480214E+002
1.8465257E+000	1.313950642897421E+002
1.8493485E+000	1.326105974922119E+002
1.8506594E+000	1.331845837402344E+002