Ewe/V	<I>/mA	
1.3970876E+000	0.000000000000000E+000
1.3900318E+000	0.000000000000000E+000
1.2308795E+000	-9.055799258606768E+000
1.2330480E+000	-6.583088090743652E-001
1.2363895E+000	-2.850472131894888E-001
1.2397180E+000	-1.892725110951625E-001
1.2430501E+000	-1.342600245997101E-001
1.2463716E+000	-9.652173753985305E-002
1.2497070E+000	-6.789638387655206E-002
1.2530619E+000	-4.556556656907573E-002
1.2563807E+000	-2.803942318342212E-002
1.2596970E+000	-1.273216101036292E-002
1.2630464E+000	-8.901802438763583E-004
1.2663829E+000	9.267384165348504E-003
1.2697235E+000	1.812929652505904E-002
1.2730650E+000	2.539726916453091E-002
1.2763849E+000	3.204769642493126E-002
1.2797127E+000	3.785873877854773E-002
1.2830499E+000	4.268039762711854E-002
1.2863716E+000	4.700593216557547E-002
1.2897137E+000	5.051146881489127E-002
1.2930521E+000	5.385083616976916E-002
1.2963779E+000	5.686554714413353E-002
1.2997220E+000	5.948441618169431E-002
1.3030638E+000	6.194248349535553E-002
1.3063872E+000	6.400693846402861E-002
1.3097202E+000	6.578204584646996E-002
1.3130580E+000	6.813966691976581E-002
1.3163716E+000	6.942522052896627E-002
1.3197272E+000	7.155938160176656E-002
1.3230559E+000	7.261677257057297E-002
1.3263830E+000	7.428749353033814E-002
1.3297174E+000	7.608326375539332E-002
1.3330441E+000	7.768743295165770E-002
1.3364016E+000	7.920077371312967E-002
1.3397288E+000	8.082655908055469E-002
1.3430516E+000	8.303583249880564E-002
1.3464044E+000	8.471857828542417E-002
1.3497348E+000	8.665708273582029E-002
1.3530782E+000	8.850339335602753E-002
1.3563894E+000	9.065056154212869E-002
1.3597254E+000	9.344954178253062E-002
1.3630663E+000	9.697119980669644E-002
1.3664117E+000	9.945620148732015E-002
1.3697327E+000	1.026175328219003E-001
1.3730842E+000	1.066341995703661E-001
1.3764188E+000	1.114999666255390E-001
1.3797398E+000	1.166863570533683E-001
1.3830862E+000	1.227647812973383E-001
1.3864080E+000	1.315743085371293E-001
1.3897568E+000	1.407245341458472E-001
1.3930831E+000	1.523174381668173E-001
1.3964102E+000	1.670251996535805E-001
1.3997428E+000	1.855922069998632E-001
1.4030669E+000	2.086609141980242E-001
1.4063928E+000	2.372912644147447E-001
1.4097360E+000	2.734477802753872E-001
1.4130664E+000	3.187323865279383E-001
1.4163897E+000	3.736214063469605E-001
1.4197214E+000	4.419912786599962E-001
1.4230499E+000	5.241037020490499E-001
1.4263629E+000	6.230461959434077E-001
1.4296803E+000	7.425675341694298E-001
1.4330115E+000	8.816408883845774E-001
1.4364036E+000	1.050264581792247E+000
1.4397105E+000	1.240623231173913E+000
1.4430587E+000	1.459288922707643E+000
1.4463844E+000	1.709331959436135E+000
1.4497215E+000	1.989920943855541E+000
1.4530542E+000	2.305499785169156E+000
1.4563912E+000	2.652869746668795E+000
1.4597280E+000	3.033090299149492E+000
1.4630507E+000	3.447774989813198E+000
1.4663910E+000	3.895282046914611E+000
1.4697300E+000	4.375453116937109E+000
1.4730525E+000	4.887277727077944E+000
1.4763753E+000	5.430481621622960E+000
1.4797230E+000	6.003028568337157E+000
1.4830341E+000	6.604432912699679E+000
1.4863625E+000	7.233781940448992E+000
1.4896973E+000	7.890709071194806E+000
1.4930011E+000	8.573471775122130E+000
1.4963598E+000	9.283927131261606E+000
1.4997035E+000	1.001843524758844E+001
1.5030433E+000	1.078242431486737E+001
1.5064055E+000	1.158693578593389E+001
1.5097536E+000	1.239325083351309E+001
1.5130917E+000	1.322156514902728E+001
1.5164212E+000	1.407018829422545E+001
1.5197667E+000	1.493751380268100E+001
1.5230850E+000	1.582486545404282E+001
1.5264168E+000	1.673437050285270E+001
1.5297513E+000	1.766046892447487E+001
1.5330709E+000	1.860475400544004E+001
1.5364177E+000	1.956759991103957E+001
1.5397363E+000	2.054863612312056E+001
1.5430880E+000	2.154764606093249E+001
1.5463953E+000	2.256074449144927E+001
1.5497456E+000	2.358948649149761E+001
1.5530816E+000	2.463392775482606E+001
1.5563979E+000	2.569229645645356E+001
1.5597444E+000	2.676730304255861E+001
1.5630661E+000	2.785804238397589E+001
1.5664306E+000	2.896018441430681E+001
1.5697488E+000	3.007518510435261E+001
1.5730623E+000	3.120362166813555E+001
1.5764233E+000	3.234717180181053E+001
1.5797577E+000	3.350530976268323E+001
1.5830719E+000	3.466599702653983E+001
1.5864242E+000	3.584168380708115E+001
1.5897406E+000	3.703112134240564E+001
1.5930719E+000	3.822891945058137E+001
1.5964067E+000	3.943867465805164E+001
1.5997580E+000	4.066613229463906E+001
1.6030930E+000	4.189781975247806E+001
1.6064183E+000	4.314122467159109E+001
1.6097496E+000	4.439136131360798E+001
1.6130812E+000	4.565253372645793E+001
1.6164073E+000	4.691986769893458E+001
1.6197244E+000	4.820988362312096E+001
1.6230624E+000	4.951866491181102E+001
1.6263940E+000	5.081683622769503E+001
1.6297462E+000	5.213183962484905E+001
1.6330756E+000	5.344395202284932E+001
1.6364021E+000	5.477339288683061E+001
1.6397231E+000	5.610461136606318E+001
1.6430805E+000	5.744936856683853E+001
1.6463917E+000	5.880000530120697E+001
1.6497496E+000	6.014928958636767E+001
1.6530892E+000	6.150699916383064E+001
1.6564174E+000	6.286377549139831E+001
1.6597388E+000	6.424314123362333E+001
1.6630790E+000	6.563195353170772E+001
1.6664174E+000	6.702894822092617E+001
1.6697379E+000	6.843734454126934E+001
1.6730753E+000	6.985162418825507E+001
1.6764098E+000	7.126876068600403E+001
1.6797404E+000	7.273054358178570E+001
1.6830760E+000	7.415999463251092E+001
1.6864237E+000	7.559605965760875E+001
1.6897427E+000	7.703912362214601E+001
1.6930768E+000	7.848959226393526E+001
1.6964160E+000	7.994628927403711E+001
1.6997501E+000	8.140631883114374E+001
1.7030826E+000	8.288443277756210E+001
1.7064387E+000	8.438401523142124E+001
1.7097911E+000	8.588142371624862E+001
1.7131158E+000	8.738018344274042E+001
1.7164534E+000	8.887734802761804E+001
1.7197793E+000	9.041394994036636E+001
1.7231144E+000	9.192448525462396E+001
1.7264581E+000	9.342014185855169E+001
1.7298071E+000	9.491204939024908E+001
1.7331200E+000	9.643682680518975E+001
1.7364632E+000	9.796170785350203E+001
1.7397922E+000	9.950074588626626E+001
1.7431152E+000	1.010310368618216E+002
1.7464445E+000	1.025640632807468E+002
1.7497926E+000	1.040901037921510E+002
1.7531295E+000	1.056583803823632E+002
1.7564481E+000	1.072567685262560E+002
1.7597811E+000	1.088126687884666E+002
1.7631685E+000	1.105323033443106E+002
1.7665130E+000	1.120909837410754E+002
1.7698632E+000	1.136726310138729E+002
1.7731794E+000	1.152394616481026E+002
1.7765268E+000	1.168372412804477E+002
1.7798526E+000	1.184625211100470E+002
1.7831920E+000	1.200035042228735E+002
1.7865237E+000	1.216536124687257E+002
1.7898639E+000	1.232476976341015E+002
1.7931740E+000	1.248538538599689E+002
1.7965025E+000	1.265084235718478E+002
1.7998474E+000	1.280931569227487E+002
1.8031893E+000	1.296719350040486E+002
1.8065276E+000	1.312823779894213E+002
1.8098435E+000	1.329223238353097E+002
1.8132221E+000	1.345391048021665E+002
1.8165329E+000	1.361341188360975E+002
1.8198811E+000	1.377593181110619E+002
1.8231850E+000	1.392767800848999E+002
1.8265301E+000	1.408907417813311E+002
1.8298732E+000	1.425237564185771E+002
1.8332225E+000	1.441509980525248E+002
1.8365488E+000	1.457932733468635E+002
1.8398633E+000	1.474551197300093E+002
1.8432169E+000	1.491197202561901E+002
1.8465480E+000	1.507345014140687E+002
1.8493667E+000	1.521405832907085E+002
1.8507415E+000	1.528072764078775E+002