Ewe/V	<I>/mA	
8.1359136E-001	-7.016192436218262E+000
8.1415987E-001	-3.607464991785868E+000
8.1515986E-001	-1.203816308467474E+000
8.1616652E-001	-5.136651210141956E-001
8.1713289E-001	-2.383121360886693E-001
8.1817597E-001	-1.043948247873538E-001
8.1913662E-001	-2.592493479477098E-002
8.2077283E-001	5.427139499052269E-002
8.2175809E-001	8.415032166090816E-002
8.2277459E-001	1.072673322115507E-001
8.2376295E-001	1.258061941264679E-001
8.2476920E-001	1.405875222171070E-001
8.2580680E-001	1.533937337808324E-001
8.2676768E-001	1.630856999092634E-001
8.2775080E-001	1.735984556070405E-001
8.2876444E-001	1.801065106496771E-001
8.2975322E-001	1.866878772637355E-001
8.3077276E-001	1.932765581576081E-001
8.3176959E-001	1.989123364220611E-001
8.3276135E-001	2.031232359025772E-001
8.3375460E-001	2.084373461634463E-001
8.3476329E-001	2.114093758648745E-001
8.3573759E-001	2.159827479885690E-001
8.3675951E-001	2.196433381349958E-001
8.3775413E-001	2.221946614208048E-001
8.3876204E-001	2.247007927960815E-001
8.3978111E-001	2.274746843096285E-001
8.4075773E-001	2.297199587855068E-001
8.4176224E-001	2.322254994608182E-001
8.4274763E-001	2.337388774656031E-001
8.4375495E-001	2.367574382062854E-001
8.4476614E-001	2.393989686474751E-001
8.4576899E-001	2.413039554807330E-001
8.4675914E-001	2.424656680474677E-001
8.4775448E-001	2.436064173363980E-001
8.4877813E-001	2.450888961622555E-001
8.4973907E-001	2.463307695601282E-001
8.5074842E-001	2.472703543112234E-001
8.5175735E-001	2.487423473072270E-001
8.5274255E-001	2.504815990450200E-001
8.5373545E-001	2.508031656896637E-001
8.5475528E-001	2.525154368055085E-001
8.5573024E-001	2.538498867717061E-001
8.5675079E-001	2.542829608061812E-001
8.5773873E-001	2.552883824747454E-001
8.5874856E-001	2.554786175627402E-001
8.5972524E-001	2.569672533966330E-001
8.6074924E-001	2.581099805520903E-001
8.6173356E-001	2.596369100113719E-001
8.6273998E-001	2.602947372253303E-001
8.6373091E-001	2.605043272660286E-001
8.6472905E-001	2.611021933111322E-001
8.6572915E-001	2.614505319614659E-001
8.6676288E-001	2.624900624914865E-001
8.6770177E-001	2.632558448240152E-001
8.6875123E-001	2.644144214896693E-001
8.6970001E-001	2.647694576945558E-001
8.7075216E-001	2.651137959694969E-001
8.7172604E-001	2.663776027038698E-001
8.7272263E-001	2.665384361796348E-001
8.7370950E-001	2.674425599613679E-001
8.7474090E-001	2.673638545804558E-001
8.7573510E-001	2.684757709503183E-001
8.7674093E-001	2.686884039458599E-001
8.7774986E-001	2.698147022337838E-001
8.7874418E-001	2.701246236209514E-001
8.7972391E-001	2.702572693082486E-001
8.8073933E-001	2.707154434519243E-001
8.8172525E-001	2.720085668757002E-001
8.8273263E-001	2.716653646073419E-001
8.8373208E-001	2.721986845480622E-001
8.8474357E-001	2.724685652043521E-001
8.8571876E-001	2.731468291884198E-001
8.8674885E-001	2.735620817445490E-001
8.8773596E-001	2.742751939912100E-001
8.8871658E-001	2.740075000458298E-001
8.8973045E-001	2.747535332347510E-001
8.9074546E-001	2.745094975732547E-001
8.9175421E-001	2.756653127639936E-001
8.9273196E-001	2.762022021192090E-001
8.9372098E-001	2.761729662300312E-001
8.9471906E-001	2.764503109027396E-001
8.9572829E-001	2.766923953399614E-001
8.9673734E-001	2.772652770703037E-001
8.9771575E-001	2.785269608721145E-001
8.9873499E-001	2.772521475261005E-001
8.9975744E-001	2.780763903218846E-001
9.0071237E-001	2.794760405258452E-001
9.0170711E-001	2.782754681452566E-001
9.0272701E-001	2.793792448937888E-001
9.0371627E-001	2.803550080430738E-001
9.0473479E-001	2.797136048061981E-001
9.0573764E-001	2.804624795637767E-001
9.0671462E-001	2.806381024420261E-001
9.0772074E-001	2.815756219335727E-001
9.0874088E-001	2.816664333006855E-001
9.0960389E-001	2.811560814845429E-001
9.1011721E-001	2.800052144697733E-001
9.0954685E-001	2.513426011379732E-002
9.0852267E-001	-1.207474128481136E-001
9.0752286E-001	-1.641859900965179E-001
9.0649778E-001	-1.854544339218633E-001
9.0551645E-001	-1.975050614629357E-001
9.0449125E-001	-2.057295246049757E-001
9.0355206E-001	-2.119834197823098E-001
9.0251279E-001	-2.178551440851551E-001
9.0152025E-001	-2.216428073330059E-001
9.0056181E-001	-2.254735737763065E-001
8.9951789E-001	-2.295783696075278E-001
8.9850444E-001	-2.317794791457266E-001
8.9753926E-001	-2.352281887843111E-001
8.9652234E-001	-2.368491689364114E-001
8.9552701E-001	-2.397405263726351E-001
8.9451545E-001	-2.414899719879040E-001
8.9352471E-001	-2.444265563424244E-001
8.9253420E-001	-2.461046612028164E-001
8.9151800E-001	-2.470466145486734E-001
8.9053982E-001	-2.486718072107532E-001
8.8952982E-001	-2.504374739472515E-001
8.8855791E-001	-2.516602060102198E-001
8.8752735E-001	-2.531312367430445E-001
8.8651156E-001	-2.541522892467949E-001
8.8554955E-001	-2.552713747653700E-001
8.8453221E-001	-2.565824683686656E-001
8.8353020E-001	-2.577066941669690E-001
8.8252592E-001	-2.587989071660024E-001
8.8153356E-001	-2.604505946790723E-001
8.8052189E-001	-2.615330188914591E-001
8.7951362E-001	-2.623620325768441E-001
8.7852329E-001	-2.625461117605914E-001
8.7755072E-001	-2.639823933472174E-001
8.7651032E-001	-2.652764821218101E-001
8.7555003E-001	-2.660876549780360E-001
8.7450999E-001	-2.664546447081699E-001
8.7354898E-001	-2.673393719726134E-001
8.7252402E-001	-2.682145246546018E-001
8.7151885E-001	-2.690993901342149E-001
8.7053663E-001	-2.699736120455238E-001
8.6952281E-001	-2.705345490464475E-001
8.6853260E-001	-2.716225303916469E-001
8.6754471E-001	-2.706157552354326E-001
8.6652762E-001	-2.729543844168942E-001
8.6554080E-001	-2.732527891035992E-001
8.6453891E-001	-2.735742686523341E-001
8.6356467E-001	-2.751521493687668E-001
8.6252797E-001	-2.754861710041202E-001
8.6151677E-001	-2.761888110458299E-001
8.6053300E-001	-2.777358055475330E-001
8.5954350E-001	-2.774824283810133E-001
8.5853100E-001	-2.777815968212156E-001
8.5755521E-001	-2.783926084499666E-001
8.5652453E-001	-2.792336960081696E-001
8.5555297E-001	-2.797023145205992E-001
8.5457301E-001	-2.811702802018443E-001
8.5353792E-001	-2.811003387388253E-001
8.5255563E-001	-2.822412052364260E-001
8.5153085E-001	-2.820999574744025E-001
8.5054785E-001	-2.830227049826470E-001
8.4955376E-001	-2.838798196710368E-001
8.4856206E-001	-2.851426359266043E-001
8.4756368E-001	-2.853827702088494E-001
8.4657788E-001	-2.854376753654193E-001
8.4557068E-001	-2.870204956098288E-001
8.4456027E-001	-2.874009312670751E-001
8.4356427E-001	-2.874559243037185E-001
8.4256661E-001	-2.883950479466599E-001
8.4156221E-001	-2.889503844565272E-001
8.4059042E-001	-2.897194592558121E-001
8.3956569E-001	-2.901264923038314E-001
8.3856106E-001	-2.902429683340924E-001
8.3758271E-001	-2.910024865219989E-001
8.3657944E-001	-2.924380937798148E-001
8.3557326E-001	-2.923830992507717E-001
8.3457512E-001	-2.930901354109788E-001
8.3354688E-001	-2.930590805977021E-001
8.3255506E-001	-2.936899573024778E-001
8.3155924E-001	-2.947687718120431E-001
8.3056289E-001	-2.945006503206155E-001
8.2958996E-001	-2.960450408842283E-001
8.2858479E-001	-2.963936416501243E-001
8.2755065E-001	-2.970849070354076E-001
8.2654637E-001	-2.971370863141836E-001
8.2556665E-001	-2.985629153748349E-001
8.2456279E-001	-2.975436246574468E-001
8.2355326E-001	-2.991286313713157E-001
8.2254875E-001	-2.991857133391829E-001
8.2155764E-001	-2.994085047049113E-001
8.2056457E-001	-3.004636187451302E-001
8.1957275E-001	-3.004398034816527E-001
8.1855041E-001	-3.012177551648136E-001
8.1754714E-001	-3.024458859667720E-001
8.1655055E-001	-3.044155612587938E-001
8.1551385E-001	-3.035129349057861E-001
8.1455159E-001	-3.032279351933140E-001
8.1354439E-001	-3.049749779618454E-001
8.1255561E-001	-3.052661651745434E-001
8.1157237E-001	-3.042440346131716E-001
8.1059736E-001	-3.057966512084632E-001
8.1005782E-001	-3.036698778470361E-001
8.1063968E-001	-4.502839482451859E-002
8.1164831E-001	1.092548044829600E-001
8.1264794E-001	1.567798700976984E-001
8.1364810E-001	1.795436616435089E-001
8.1464261E-001	1.938399475895709E-001
8.1564462E-001	2.026902984965737E-001
8.1665093E-001	2.106949784965426E-001
8.1765032E-001	2.163547327121100E-001
8.1865716E-001	2.195793772116312E-001
8.1963700E-001	2.249015646262311E-001
8.2064652E-001	2.279056056782052E-001
8.2166433E-001	2.308152821259908E-001
8.2264078E-001	2.340967490303294E-001
8.2364810E-001	2.371213559958114E-001
8.2464963E-001	2.385819443260089E-001
8.2562846E-001	2.410974976848119E-001
8.2662767E-001	2.434987920439902E-001
8.2762933E-001	2.452752552057200E-001
8.2865012E-001	2.471462480240954E-001
8.2963556E-001	2.480566862073763E-001
8.3065856E-001	2.508347000995721E-001
8.3167088E-001	2.518327011968249E-001
8.3265245E-001	2.529420936135232E-001
8.3364505E-001	2.545772121046426E-001
8.3465058E-001	2.550964328563874E-001
8.3567518E-001	2.566201696517287E-001
8.3665806E-001	2.572844522763722E-001
8.3766663E-001	2.587504786335755E-001
8.3865714E-001	2.593562338087296E-001
8.3967572E-001	2.600492782269912E-001
8.4065109E-001	2.612426028138515E-001
8.4165353E-001	2.628813610515652E-001
8.4265149E-001	2.620568340644245E-001
8.4363228E-001	2.645014137085333E-001
8.4465551E-001	2.646918267839491E-001
8.4565198E-001	2.650238545956427E-001
8.4665543E-001	2.654504778760460E-001
8.4762675E-001	2.666524316839602E-001
8.4867263E-001	2.673803528218919E-001
8.4963864E-001	2.677285737116581E-001
8.5064632E-001	2.678014615343682E-001
8.5166180E-001	2.690075628666421E-001
8.5265499E-001	2.690904817233477E-001
8.5363746E-001	2.692695484255201E-001
8.5465103E-001	2.702258223736739E-001
8.5564250E-001	2.708446474193975E-001
8.5666895E-001	2.710028229350283E-001
8.5765105E-001	2.718808598885389E-001
8.5862643E-001	2.715797684396852E-001
8.5965526E-001	2.722956772410754E-001
8.6063999E-001	2.734306703549167E-001
8.6162233E-001	2.730941443738570E-001
8.6265594E-001	2.735303376490863E-001
8.6362374E-001	2.734968647084861E-001
8.6463457E-001	2.735371632087564E-001
8.6560476E-001	2.748014039739414E-001
8.6663985E-001	2.751846579765846E-001
8.6760610E-001	2.752765049743982E-001
8.6861658E-001	2.753305200970284E-001
8.6961997E-001	2.760206988702207E-001
8.7059671E-001	2.767801337564992E-001
8.7161851E-001	2.768503140520155E-001
8.7261343E-001	2.769373669116582E-001
8.7362319E-001	2.778046055593419E-001
8.7460464E-001	2.781212911768656E-001
8.7561971E-001	2.778969155624513E-001
8.7662643E-001	2.783663000285808E-001
8.7762368E-001	2.794726589625647E-001
8.7865263E-001	2.808921536844640E-001
8.7961787E-001	2.790590313228751E-001
8.8062948E-001	2.800428473770058E-001
8.8161975E-001	2.802634743490708E-001
8.8262784E-001	2.800105015436811E-001
8.8362271E-001	2.806355651054118E-001
8.8461679E-001	2.808513602379841E-001
8.8562721E-001	2.807317306115120E-001
8.8659519E-001	2.819835927889294E-001
8.8763726E-001	2.813664118379906E-001
8.8862216E-001	2.815122664388690E-001
8.8959378E-001	2.819620419500612E-001
8.9063048E-001	2.829006047298512E-001
8.9161223E-001	2.826398513107380E-001
8.9261013E-001	2.828451975214262E-001
8.9361554E-001	2.835937411440190E-001
8.9460289E-001	2.844994561746708E-001
8.9562273E-001	2.838681636861085E-001
8.9662993E-001	2.845889604477971E-001
8.9759934E-001	2.848854365724102E-001
8.9861166E-001	2.842330290694468E-001
8.9961571E-001	2.858415600947195E-001
9.0062833E-001	2.861326435856801E-001
9.0160644E-001	2.854198160132877E-001
9.0262949E-001	2.855879967963255E-001
9.0361428E-001	2.862486319823399E-001
9.0463024E-001	2.860380983738977E-001
9.0560186E-001	2.861669053565024E-001
9.0662622E-001	2.865083214171516E-001
9.0763438E-001	2.872476228340366E-001
9.0862554E-001	2.877441718829457E-001
9.0958065E-001	2.878829872546109E-001
9.1005611E-001	2.857483987297331E-001
9.0951550E-001	3.169197247000380E-002
9.0851402E-001	-1.158581457825169E-001
9.0753454E-001	-1.598370870816761E-001
9.0651721E-001	-1.810836173352548E-001
9.0550882E-001	-1.929744746432533E-001
9.0449995E-001	-2.010407328812605E-001
9.0349764E-001	-2.079855592024540E-001
9.0253294E-001	-2.127497840534760E-001
9.0151876E-001	-2.180439081318956E-001
9.0053678E-001	-2.216964735201108E-001
8.9953226E-001	-2.245930885137227E-001
8.9851850E-001	-2.277143413752869E-001
8.9750898E-001	-2.304525955200750E-001
8.9652723E-001	-2.324460842474201E-001
8.9552122E-001	-2.358547914083360E-001
8.9452076E-001	-2.379480812836583E-001
8.9350861E-001	-2.402694829880988E-001
8.9250231E-001	-2.424343485316185E-001
8.9151019E-001	-2.425961883876604E-001
8.9052331E-001	-2.449771241043459E-001
8.8952714E-001	-2.467544451011001E-001
8.8853413E-001	-2.474144452975846E-001
8.8751823E-001	-2.503760172123159E-001
8.8649595E-001	-2.511058765704994E-001
8.8551897E-001	-2.512625361344316E-001
8.8451815E-001	-2.534344451915880E-001
8.8354701E-001	-2.539195806753858E-001
8.8252038E-001	-2.543270618965241E-001
8.8154221E-001	-2.563688522549707E-001
8.8053852E-001	-2.578609252900432E-001
8.7953573E-001	-2.587846127442193E-001
8.7857264E-001	-2.596065353740142E-001
8.7752545E-001	-2.611311102978682E-001
8.7653261E-001	-2.621616517297101E-001
8.7556642E-001	-2.615089663476842E-001
8.7450188E-001	-2.634328660658669E-001
8.7352520E-001	-2.641035668482932E-001
8.7253708E-001	-2.641316582276292E-001
8.7153912E-001	-2.662867999946084E-001
8.7054217E-001	-2.665194781773064E-001
8.6952853E-001	-2.671047048643240E-001
8.6852974E-001	-2.683714877262164E-001
8.6753744E-001	-2.680934993895125E-001
8.6654145E-001	-2.696105278338545E-001
8.6551499E-001	-2.707950529056014E-001
8.6453360E-001	-2.707086581115918E-001
8.6352402E-001	-2.721785665317271E-001
8.6251515E-001	-2.730135035321676E-001
8.6154109E-001	-2.739877668036912E-001
8.6054045E-001	-2.747796166647143E-001
8.5956746E-001	-2.743978155776854E-001
8.5854149E-001	-2.754334837060277E-001
8.5758144E-001	-2.758128977622152E-001
8.5653037E-001	-2.765526972987029E-001
8.5554808E-001	-2.777214972992192E-001
8.5455024E-001	-2.780641917553209E-001
8.5355324E-001	-2.787942688015326E-001
8.5255134E-001	-2.792378441189172E-001
8.5153019E-001	-2.805023472756147E-001
8.5054094E-001	-2.806463797956154E-001
8.4953195E-001	-2.810589157182859E-001
8.4854639E-001	-2.822718076338928E-001
8.4752005E-001	-2.834578096797618E-001
8.4656411E-001	-2.832538819423422E-001
8.4552568E-001	-2.835496090076590E-001
8.4453946E-001	-2.843037811397700E-001
8.4355134E-001	-2.855370017458432E-001
8.4256339E-001	-2.857449448288047E-001
8.4156454E-001	-2.859740035470439E-001
8.4054792E-001	-2.863716255804456E-001
8.3954901E-001	-2.869206155408870E-001
8.3854574E-001	-2.874275459735476E-001
8.3756530E-001	-2.882453454658398E-001
8.3655238E-001	-2.886383227521069E-001
8.3553874E-001	-2.896887051907390E-001
8.3452553E-001	-2.902275937850812E-001
8.3356160E-001	-2.898252589835064E-001
8.3254468E-001	-2.906790434693294E-001
8.3154738E-001	-2.912170333718800E-001
8.3056241E-001	-2.917006357607468E-001
8.2955462E-001	-2.926981978601315E-001
8.2857239E-001	-2.927879965001772E-001
8.2756376E-001	-2.939994977667442E-001
8.2657999E-001	-2.948867387862663E-001
8.2556260E-001	-2.953171163659400E-001
8.2456189E-001	-2.956818647475712E-001
8.2354879E-001	-2.966498776028565E-001
8.2255024E-001	-2.974801864130070E-001
8.2158673E-001	-2.968406657929767E-001
8.2055640E-001	-2.988798836315114E-001
8.1957191E-001	-2.980701113809596E-001
8.1854594E-001	-2.987606794124962E-001
8.1752622E-001	-2.996311206715525E-001
8.1656635E-001	-3.010993501240451E-001
8.1552953E-001	-3.011153608698536E-001
8.1456393E-001	-3.010611596551764E-001
8.1356120E-001	-3.009895053864611E-001
8.1255603E-001	-3.021729943790921E-001
8.1154603E-001	-3.015866896344559E-001
8.1060451E-001	-3.037691110794459E-001
8.1010365E-001	-2.995805521806085E-001
8.1063128E-001	-4.195191599166914E-002
8.1166518E-001	1.116862650357049E-001
8.1265956E-001	1.592767413153700E-001
8.1364173E-001	1.814172106139635E-001
8.1466120E-001	1.949912336896418E-001
8.1567287E-001	2.042982813522780E-001
8.1666106E-001	2.129585510119778E-001
8.1764966E-001	2.181783248842875E-001
8.1867588E-001	2.223151920846210E-001
8.1966162E-001	2.260872772722324E-001
8.2065839E-001	2.293664166979772E-001
8.2163298E-001	2.328857233126955E-001
8.2264727E-001	2.360815316852611E-001
8.2363456E-001	2.389932533864068E-001
8.2463366E-001	2.411283489178726E-001
8.2563454E-001	2.430505572852715E-001
8.2663685E-001	2.448098901659250E-001
8.2764345E-001	2.469618422517472E-001
8.2866740E-001	2.486906945015552E-001
8.2963485E-001	2.496602762904425E-001
8.3063650E-001	2.516009771368575E-001
8.3164883E-001	2.531560891894267E-001
8.3265054E-001	2.540754888344692E-001
8.3364946E-001	2.554252074893415E-001
8.3463997E-001	2.566968479228249E-001
8.3563232E-001	2.576752266398179E-001
8.3665144E-001	2.598842004727988E-001
8.3764732E-001	2.594291019011981E-001
8.3864802E-001	2.607950660641540E-001
8.3963788E-001	2.617154146234195E-001
8.4065580E-001	2.621184644737724E-001
8.4165508E-001	2.630071251273689E-001
8.4263897E-001	2.641782407752347E-001
8.4363908E-001	2.648155096248324E-001
8.4468251E-001	2.659908144355363E-001
8.4562838E-001	2.657826199644684E-001
8.4663606E-001	2.675931675152645E-001
8.4763718E-001	2.679604071502881E-001
8.4863299E-001	2.683358862996119E-001
8.4962082E-001	2.688422434169935E-001
8.5063380E-001	2.694154600785295E-001
8.5163695E-001	2.700873665097698E-001
8.5261953E-001	2.702266176196702E-001
8.5361981E-001	2.702392878838711E-001
8.5462451E-001	2.706197169436901E-001
8.5563296E-001	2.711940504334596E-001
8.5663962E-001	2.723262224484371E-001
8.5764170E-001	2.732850280072965E-001
8.5864186E-001	2.731624810645974E-001
8.5963202E-001	2.744611583788084E-001
8.6063790E-001	2.749040805689598E-001
8.6160278E-001	2.747548849632351E-001
8.6262202E-001	2.750196820469917E-001
8.6361396E-001	2.750084203219529E-001
8.6463469E-001	2.756300665852116E-001
8.6563212E-001	2.763720738736014E-001
8.6663121E-001	2.766173222205688E-001
8.6763293E-001	2.761981404489937E-001
8.6860353E-001	2.775801943822040E-001
8.6960769E-001	2.768371318708409E-001
8.7062669E-001	2.783984851988930E-001
8.7163955E-001	2.773637498073560E-001
8.7261832E-001	2.781421866405891E-001
8.7362307E-001	2.780697092551883E-001
8.7463814E-001	2.791981344214749E-001
8.7563306E-001	2.795976373470483E-001
8.7663859E-001	2.800018116030465E-001
8.7764901E-001	2.808550333397253E-001
8.7865371E-001	2.804057034836329E-001
8.7964398E-001	2.805212471220222E-001
8.8065308E-001	2.805929562352869E-001
8.8164490E-001	2.815804231084060E-001
8.8264006E-001	2.812319906704408E-001
8.8363570E-001	2.814407869828521E-001
8.8461936E-001	2.816191871340070E-001
8.8563299E-001	2.819564314904048E-001
8.8660955E-001	2.832043464468033E-001
8.8759971E-001	2.829310311418453E-001
8.8861883E-001	2.836774861164111E-001
8.8961852E-001	2.840853100642575E-001
8.9063519E-001	2.837995071033097E-001
8.9161199E-001	2.834557929179740E-001
8.9264661E-001	2.844232932698951E-001
8.9362741E-001	2.848057788125216E-001
8.9462650E-001	2.853904679348634E-001
8.9561653E-001	2.850293904818884E-001
8.9663559E-001	2.851149083494589E-001
8.9763057E-001	2.853447423764957E-001
8.9864075E-001	2.851840009981839E-001
8.9963698E-001	2.861823099492877E-001
9.0063381E-001	2.867677124148162E-001
9.0163106E-001	2.859798448712185E-001
9.0262383E-001	2.865707531778336E-001
9.0362066E-001	2.863622030450244E-001
9.0461773E-001	2.873785580956829E-001
9.0563041E-001	2.881442329466908E-001
9.0659815E-001	2.880484245855497E-001
9.0763861E-001	2.889099462578688E-001
9.0862912E-001	2.883598863112713E-001
9.0958327E-001	2.884224298177269E-001
9.1010958E-001	2.964980155229568E-001