Ewe/V	<I>/mA	
8.1045127E-001	-4.756658554077148E+000
8.1101990E-001	-4.510324159379548E-001
8.1208926E-001	-7.978715740842840E-002
8.1311280E-001	-3.821854247621567E-002
8.1408721E-001	-2.076968818751573E-002
8.1506908E-001	-1.086357116980505E-002
8.1606209E-001	-4.222833935669093E-003
8.1706530E-001	5.911883464614284E-004
8.1807882E-001	3.573890226507039E-003
8.1907076E-001	6.738909516431742E-003
8.2005841E-001	8.990667365019023E-003
8.2107306E-001	1.044350837869862E-002
8.2204819E-001	1.218910626403648E-002
8.2305562E-001	1.334062413981041E-002
8.2404411E-001	1.446023537243191E-002
8.2508183E-001	1.516607059307704E-002
8.2607418E-001	1.640743058036304E-002
8.2706374E-001	1.679695989610702E-002
8.2806009E-001	1.777164392694025E-002
8.2904655E-001	1.821577368499857E-002
8.3005208E-001	1.852942092467676E-002
8.3106112E-001	1.930319073119707E-002
8.3204067E-001	1.976157742779520E-002
8.3306044E-001	1.998044467592908E-002
8.3404332E-001	2.023851833945026E-002
8.3504379E-001	2.090676976401201E-002
8.3603591E-001	2.135916049772870E-002
8.3706385E-001	2.141844462008699E-002
8.3805215E-001	2.183190265530227E-002
8.3906585E-001	2.248077826873925E-002
8.4008706E-001	2.231582708399765E-002
8.4104645E-001	2.240136895410594E-002
8.4208405E-001	2.246200099355310E-002
8.4302437E-001	2.307715316930631E-002
8.4405524E-001	2.339176731355042E-002
8.4505928E-001	2.350566155313914E-002
8.4606868E-001	2.328765348314649E-002
8.4707171E-001	2.344512837966772E-002
8.4806722E-001	2.399063058194156E-002
8.4904701E-001	2.395497007310632E-002
8.5004067E-001	2.394445108727128E-002
8.5104281E-001	2.447799096459857E-002
8.5202360E-001	2.445803902510502E-002
8.5302657E-001	2.453230377904236E-002
8.5404640E-001	2.482275149477325E-002
8.5503757E-001	2.508287976068641E-002
8.5604608E-001	2.478686194950383E-002
8.5702002E-001	2.489320194615706E-002
8.5806429E-001	2.509419482424985E-002
8.5902172E-001	2.512656533136370E-002
8.6003482E-001	2.516473254679588E-002
8.6101598E-001	2.547658740700748E-002
8.6202949E-001	2.524853723621079E-002
8.6301750E-001	2.546415801533913E-002
8.6402810E-001	2.557185945630447E-002
8.6501181E-001	2.613871269473939E-002
8.6604160E-001	2.597581578241694E-002
8.6704946E-001	2.599132233092560E-002
8.6803222E-001	2.583681136506566E-002
8.6900198E-001	2.609617256268969E-002
8.7003350E-001	2.602667190827906E-002
8.7104398E-001	2.628955114191461E-002
8.7201458E-001	2.633628538358490E-002
8.7299705E-001	2.641269502373522E-002
8.7402666E-001	2.665923126172626E-002
8.7501407E-001	2.662650655990867E-002
8.7604141E-001	2.639846965557091E-002
8.7702572E-001	2.668604807008907E-002
8.7801605E-001	2.689350077441793E-002
8.7903559E-001	2.717751781984940E-002
8.8000524E-001	2.699409402721302E-002
8.8103622E-001	2.701342410715052E-002
8.8205117E-001	2.714802605607602E-002
8.8302350E-001	2.726818164927364E-002
8.8403130E-001	2.738285408072635E-002
8.8504392E-001	2.730985143518333E-002
8.8604540E-001	2.721531231517116E-002
8.8701868E-001	2.737459273111820E-002
8.8799340E-001	2.758904452949734E-002
8.8902497E-001	2.733990001836036E-002
8.9003044E-001	2.763127605440813E-002
8.9103711E-001	2.766424699229153E-002
8.9200723E-001	2.729696110917368E-002
8.9304829E-001	2.763795798167074E-002
8.9402598E-001	2.801553180019969E-002
8.9502335E-001	2.819022718872814E-002
8.9604491E-001	2.810794822571258E-002
8.9701563E-001	2.788174898650617E-002
8.9799374E-001	2.807932339214789E-002
8.9902925E-001	2.822247920787499E-002
9.0002155E-001	2.834276423249249E-002
9.0101653E-001	2.815210003919866E-002
9.0200680E-001	2.811037601850869E-002
9.0301305E-001	2.811941454803391E-002
9.0402031E-001	2.867292999270654E-002
9.0500718E-001	2.839101799940047E-002
9.0602648E-001	2.863293226247510E-002
9.0702021E-001	2.902401478199745E-002
9.0799707E-001	2.854751520208326E-002
9.0901864E-001	2.866077337160750E-002
9.0973890E-001	2.846744804898455E-002
9.1010576E-001	2.857410343038657E-002
9.0953016E-001	-5.259648200325373E-003
9.0854317E-001	-1.034930260208220E-002
9.0752375E-001	-1.237327776228388E-002
9.0649366E-001	-1.301409049431151E-002
9.0552425E-001	-1.432010080774630E-002
9.0454769E-001	-1.485608932670662E-002
9.0353471E-001	-1.567053641707061E-002
9.0253943E-001	-1.628811833637309E-002
9.0151757E-001	-1.664273971288027E-002
9.0053570E-001	-1.719326735615462E-002
8.9951348E-001	-1.767887647879596E-002
8.9851528E-001	-1.770742152603544E-002
8.9753562E-001	-1.827043754183832E-002
8.9651769E-001	-1.815727077850127E-002
8.9551431E-001	-1.866331412561789E-002
8.9451730E-001	-1.881737236140502E-002
8.9354217E-001	-1.884785905675629E-002
8.9254355E-001	-1.925105526651116E-002
8.9155310E-001	-1.957257669990589E-002
8.9052600E-001	-1.988769181835306E-002
8.8953716E-001	-2.015913304610770E-002
8.8852090E-001	-1.994793960135766E-002
8.8751626E-001	-2.020258607446548E-002
8.8653731E-001	-2.035310196055268E-002
8.8553834E-001	-2.097377214345722E-002
8.8454515E-001	-2.072876974928606E-002
8.8353497E-001	-2.107972707697164E-002
8.8253909E-001	-2.140555230671276E-002
8.8152689E-001	-2.128996560057983E-002
8.8054663E-001	-2.139209345365839E-002
8.7956399E-001	-2.145918720572071E-002
8.7856436E-001	-2.159994168865120E-002
8.7755460E-001	-2.181323678987696E-002
8.7654930E-001	-2.191773840179501E-002
8.7554026E-001	-2.189816018772292E-002
8.7457633E-001	-2.211809055095265E-002
8.7354010E-001	-2.241597599387346E-002
8.7254113E-001	-2.268314956507322E-002
8.7153292E-001	-2.273850884675763E-002
8.7055701E-001	-2.264923899533988E-002
8.6952567E-001	-2.266619187082067E-002
8.6852819E-001	-2.310328869895845E-002
8.6753738E-001	-2.286566014099117E-002
8.6655772E-001	-2.313155843375583E-002
8.6553574E-001	-2.315739522971041E-002
8.6452407E-001	-2.336807704554017E-002
8.6352366E-001	-2.336347388598448E-002
8.6253977E-001	-2.342233799248965E-002
8.6154139E-001	-2.360560549723516E-002
8.6054116E-001	-2.374630513193104E-002
8.5956222E-001	-2.386111923740461E-002
8.5852188E-001	-2.385518622070659E-002
8.5754311E-001	-2.383430277839024E-002
8.5654014E-001	-2.387810382311062E-002
8.5553914E-001	-2.425911145525894E-002
8.5452718E-001	-2.444534047880612E-002
8.5354072E-001	-2.429909209967096E-002
8.5254079E-001	-2.456879327630584E-002
8.5152549E-001	-2.449899544942735E-002
8.5054666E-001	-2.470941999393070E-002
8.4955704E-001	-2.438643288224474E-002
8.4854472E-001	-2.476338006507972E-002
8.4755278E-001	-2.490372531974933E-002
8.4656525E-001	-2.485778023685761E-002
8.4554219E-001	-2.542518524168647E-002
8.4456664E-001	-2.487003046746217E-002
8.4353954E-001	-2.494945894345962E-002
8.4255958E-001	-2.517118876168638E-002
8.4157819E-001	-2.538014845555403E-002
8.4057373E-001	-2.561922638829550E-002
8.3956212E-001	-2.559414285292208E-002
8.3857471E-001	-2.554630058463725E-002
8.3759207E-001	-2.555859556483742E-002
8.3655280E-001	-2.549322793013198E-002
8.3558571E-001	-2.581795246489627E-002
8.3456773E-001	-2.584472656117064E-002
8.3355045E-001	-2.609419253718199E-002
8.3254808E-001	-2.629615777889538E-002
8.3155590E-001	-2.597357364084343E-002
8.3056438E-001	-2.608984967139794E-002
8.2957029E-001	-2.603030892661012E-002
8.2852912E-001	-2.641334295720132E-002
8.2758564E-001	-2.649091847719570E-002
8.2658774E-001	-2.672447854783189E-002
8.2558405E-001	-2.671083735001301E-002
8.2455760E-001	-2.657838486412617E-002
8.2354766E-001	-2.701875141998727E-002
8.2256234E-001	-2.676577195823759E-002
8.2155406E-001	-2.664446753139293E-002
8.2055604E-001	-2.738165288435206E-002
8.1955200E-001	-2.701255643430825E-002
8.1856662E-001	-2.713786830581519E-002
8.1756151E-001	-2.701694045615188E-002
8.1656700E-001	-2.744272855981694E-002
8.1554490E-001	-2.748888227896062E-002
8.1456190E-001	-2.738158115931222E-002
8.1354696E-001	-2.758510067965497E-002
8.1255561E-001	-2.773801576847001E-002
8.1152934E-001	-2.768017637116105E-002
8.1062633E-001	-2.760715205614078E-002
8.1012654E-001	-2.709118040703884E-002
8.1071442E-001	7.609820891476247E-003
8.1174433E-001	1.344732571026898E-002
8.1274152E-001	1.534377773894260E-002
8.1374699E-001	1.660907656324885E-002
8.1474924E-001	1.770079841948574E-002
8.1575996E-001	1.818033206463904E-002
8.1673038E-001	1.884250802623855E-002
8.1773829E-001	1.941089640766552E-002
8.1874406E-001	2.037209906904741E-002
8.1975502E-001	2.014076987939450E-002
8.2075328E-001	2.080460848124838E-002
8.2174832E-001	2.127016655596697E-002
8.2277513E-001	2.146025493320480E-002
8.2371587E-001	2.184098788949493E-002
8.2475066E-001	2.181794415278127E-002
8.2574934E-001	2.217639798808720E-002
8.2675922E-001	2.232085949220575E-002
8.2774502E-001	2.247349248991298E-002
8.2875192E-001	2.307998625566626E-002
8.2974225E-001	2.273890791180475E-002
8.3075601E-001	2.324544452351864E-002
8.3174753E-001	2.324023287689923E-002
8.3273333E-001	2.374564712447583E-002
8.3374512E-001	2.359443306189635E-002
8.3476967E-001	2.351364715058185E-002
8.3577287E-001	2.364372808993331E-002
8.3675605E-001	2.419853831164032E-002
8.3775723E-001	2.414544713634603E-002
8.3874267E-001	2.414899633798084E-002
8.3976305E-001	2.433279107782099E-002
8.4075809E-001	2.407538109433649E-002
8.4175688E-001	2.433398278683807E-002
8.4272808E-001	2.444856593845436E-002
8.4375840E-001	2.473220547529992E-002
8.4475213E-001	2.492323955003589E-002
8.4575683E-001	2.479308373500111E-002
8.4674263E-001	2.485780392800155E-002
8.4773076E-001	2.507888830602584E-002
8.4876066E-001	2.538182530334410E-002
8.4974474E-001	2.548934112713541E-002
8.5077202E-001	2.535769903719639E-002
8.5176355E-001	2.545583389987646E-002
8.5276324E-001	2.566076804436447E-002
8.5375023E-001	2.550888076115491E-002
8.5476393E-001	2.547244790367331E-002
8.5574251E-001	2.557547586101007E-002
8.5674137E-001	2.566392483410013E-002
8.5774678E-001	2.592533144853815E-002
8.5875964E-001	2.591584927059581E-002
8.5975832E-001	2.602494044703396E-002
8.6075103E-001	2.591037594178947E-002
8.6173439E-001	2.598968565407281E-002
8.6271256E-001	2.596426561581618E-002
8.6373669E-001	2.623082907191382E-002
8.6472487E-001	2.618154870950379E-002
8.6573523E-001	2.654098177060893E-002
8.6674076E-001	2.641499329001162E-002
8.6778134E-001	2.618344224647656E-002
8.6876124E-001	2.676260132832947E-002
8.6977804E-001	2.633034381147564E-002
8.7074727E-001	2.662389810601606E-002
8.7173283E-001	2.673033970123059E-002
8.7272877E-001	2.652545358444536E-002
8.7375218E-001	2.667757221189149E-002
8.7476110E-001	2.679649903689343E-002
8.7573355E-001	2.668858317611684E-002
8.7674433E-001	2.664545004873790E-002
8.7774646E-001	2.704762088512083E-002
8.7873900E-001	2.680091083851688E-002
8.7973440E-001	2.707432958758089E-002
8.8074112E-001	2.719631598825968E-002
8.8174152E-001	2.700829587232784E-002
8.8273823E-001	2.723551241724376E-002
8.8371193E-001	2.743428489135874E-002
8.8471240E-001	2.718416802288047E-002
8.8574398E-001	2.723307426685062E-002
8.8670647E-001	2.747285010856397E-002
8.8773811E-001	2.754272713983519E-002
8.8872927E-001	2.763688581680319E-002
8.8970697E-001	2.734343425828067E-002
8.9074355E-001	2.752329592319222E-002
8.9172536E-001	2.769244411530897E-002
8.9272505E-001	2.756722134748296E-002
8.9370006E-001	2.779912644301857E-002
8.9473188E-001	2.784170281379006E-002
8.9571774E-001	2.768633387563135E-002
8.9671588E-001	2.787388045202732E-002
8.9771271E-001	2.818408173068304E-002
8.9872682E-001	2.810371489195496E-002
8.9973319E-001	2.803862209041280E-002
9.0072936E-001	2.815671916998153E-002
9.0171480E-001	2.791607716283853E-002
9.0271032E-001	2.813449876356250E-002
9.0372437E-001	2.835799315758214E-002
9.0470231E-001	2.835753750941320E-002
9.0572006E-001	2.824559212642958E-002
9.0673387E-001	2.850713951810173E-002
9.0773988E-001	2.841694691505522E-002
9.0871936E-001	2.847086829157470E-002
9.0961224E-001	2.848041663804707E-002
9.1009432E-001	2.800829299089924E-002
9.0949064E-001	-5.312429172360245E-003
9.0842313E-001	-1.084928646764394E-002
9.0743709E-001	-1.269639240503551E-002
9.0644646E-001	-1.367924941437744E-002
9.0542477E-001	-1.444179978722421E-002
9.0442789E-001	-1.523217643731299E-002
9.0344715E-001	-1.580064041640775E-002
9.0244949E-001	-1.630751209585564E-002
9.0145063E-001	-1.664251996273244E-002
9.0041077E-001	-1.744257274764940E-002
8.9943695E-001	-1.723545393113743E-002
8.9844900E-001	-1.763511696939479E-002
8.9744270E-001	-1.798013806182615E-002
8.9644581E-001	-1.859285520543222E-002
8.9545363E-001	-1.874536219803657E-002
8.9445025E-001	-1.894121687011435E-002
8.9344209E-001	-1.954850904226980E-002
8.9245218E-001	-1.973120221955149E-002
8.9142555E-001	-1.966095492652684E-002
8.9045519E-001	-1.987757053750644E-002
8.8944733E-001	-2.003148837285423E-002
8.8845754E-001	-2.014180459407375E-002
8.8743961E-001	-2.055489253129196E-002
8.8644290E-001	-2.062278363176062E-002
8.8545465E-001	-2.095454505049665E-002
8.8443327E-001	-2.076727964900310E-002
8.8345343E-001	-2.130210487134454E-002
8.8242656E-001	-2.121716253663236E-002
8.8144052E-001	-2.122160313921345E-002
8.8045633E-001	-2.174698351077123E-002
8.7945366E-001	-2.165491330707749E-002
8.7845784E-001	-2.178438844640818E-002
8.7745029E-001	-2.152233485523808E-002
8.7644464E-001	-2.220646362237666E-002
8.7543905E-001	-2.196379693594896E-002
8.7444419E-001	-2.234963459583617E-002
8.7343550E-001	-2.241900490605736E-002
8.7243062E-001	-2.240268291749425E-002
8.7144846E-001	-2.260515337232427E-002
8.7042665E-001	-2.273261072161226E-002
8.6943734E-001	-2.277926640171141E-002
8.6842519E-001	-2.267662676611382E-002
8.6745811E-001	-2.307921429502716E-002
8.6645955E-001	-2.308648165338761E-002
8.6543614E-001	-2.338168571624867E-002
8.6445004E-001	-2.328382970224460E-002
8.6344826E-001	-2.335889388110701E-002
8.6244369E-001	-2.345187581915820E-002
8.6145324E-001	-2.373797988091790E-002
8.6045843E-001	-2.376617548475285E-002
8.5945565E-001	-2.377185649668739E-002
8.5847437E-001	-2.368669491177799E-002
8.5747290E-001	-2.411077403630502E-002
8.5645032E-001	-2.405410168248512E-002
8.5544044E-001	-2.408512950435082E-002
8.5446298E-001	-2.428917481340648E-002
8.5341609E-001	-2.423526816934640E-002
8.5244375E-001	-2.437395158712102E-002
8.5146135E-001	-2.452777423662228E-002
8.5045278E-001	-2.462258681982088E-002
8.4946376E-001	-2.484552620740732E-002
8.4846175E-001	-2.507126604133425E-002
8.4743422E-001	-2.463198554318308E-002
8.4646171E-001	-2.513114653617854E-002
8.4545207E-001	-2.537772017960555E-002
8.4444618E-001	-2.505949950050324E-002
8.4348035E-001	-2.491835409384829E-002
8.4246457E-001	-2.568770106458540E-002
8.4147096E-001	-2.564230655139743E-002
8.4046668E-001	-2.552967044138610E-002
8.3945727E-001	-2.523523399426744E-002
8.3844340E-001	-2.578087082202790E-002
8.3746254E-001	-2.572254682763037E-002
8.3645612E-001	-2.593371552985990E-002
8.3545923E-001	-2.582548334843840E-002
8.3445054E-001	-2.609011247355769E-002
8.3344138E-001	-2.600254335751140E-002
8.3243829E-001	-2.590005497131675E-002
8.3145577E-001	-2.586652763691927E-002
8.3047634E-001	-2.597774117417290E-002
8.2948303E-001	-2.652409667487313E-002
8.2844132E-001	-2.656569912709215E-002
8.2746261E-001	-2.645390753539156E-002
8.2648283E-001	-2.628667834531981E-002
8.2547522E-001	-2.651206204315239E-002
8.2447636E-001	-2.674486395335579E-002
8.2348365E-001	-2.654364129601831E-002
8.2246941E-001	-2.695020498559889E-002
8.2148063E-001	-2.704721573785013E-002
8.2045794E-001	-2.732783220257734E-002
8.1947196E-001	-2.716387819600328E-002
8.1848282E-001	-2.727169169390103E-002
8.1749111E-001	-2.715635219961027E-002
8.1643301E-001	-2.776688480789216E-002
8.1545937E-001	-2.739291789684453E-002
8.1443924E-001	-2.781679521428168E-002
8.1343520E-001	-2.746779485822635E-002
8.1241757E-001	-2.736721195720271E-002
8.1144398E-001	-2.759197138379951E-002
8.1054628E-001	-2.775622767070096E-002
8.1007308E-001	-2.764992829500221E-002
8.1071693E-001	8.455297674461487E-003
8.1175154E-001	1.336835922133414E-002
8.1274778E-001	1.504863248728439E-002
8.1372869E-001	1.628416231549666E-002
8.1472373E-001	1.760897775485110E-002
8.1573582E-001	1.823740669834631E-002
8.1673068E-001	1.887481558423720E-002
8.1773770E-001	1.928608899489312E-002
8.1872851E-001	1.989224278167168E-002
8.1975454E-001	2.006185641597336E-002
8.2072806E-001	2.077051156204562E-002
8.2175273E-001	2.077162735736648E-002
8.2274044E-001	2.099719975471076E-002
8.2374173E-001	2.150076979454402E-002
8.2476366E-001	2.172678752425120E-002
8.2576752E-001	2.187038919269066E-002
8.2677913E-001	2.211591764687024E-002
8.2775772E-001	2.235479876077306E-002
8.2876664E-001	2.276636452221559E-002
8.2975954E-001	2.262596970784569E-002
8.3075553E-001	2.269118020258187E-002
8.3176792E-001	2.309500967322659E-002
8.3278614E-001	2.310852256349172E-002
8.3375758E-001	2.352667143793385E-002
8.3477879E-001	2.317388820091937E-002
8.3576393E-001	2.369072438101716E-002
8.3676004E-001	2.350979011863019E-002
8.3774209E-001	2.376407143575615E-002
8.3873600E-001	2.355658100549315E-002
8.3974952E-001	2.389409677225657E-002
8.4074920E-001	2.421631591988965E-002
8.4178561E-001	2.437247270317650E-002
8.4276450E-001	2.453115408472478E-002
8.4373957E-001	2.441468671247585E-002
8.4475195E-001	2.454108884724990E-002
8.4573728E-001	2.468998484961688E-002
8.4674960E-001	2.456182831110548E-002
8.4773797E-001	2.469067041355028E-002
8.4872687E-001	2.483749915518721E-002
8.4973270E-001	2.484308737480356E-002
8.5074252E-001	2.493071124931201E-002
8.5171199E-001	2.526128480118102E-002
8.5273498E-001	2.512864298318923E-002
8.5373563E-001	2.494772524874679E-002
8.5472834E-001	2.541313059194056E-002
8.5572648E-001	2.540033337868028E-002
8.5674495E-001	2.558954278471151E-002
8.5773802E-001	2.548020814559349E-002
8.5874289E-001	2.530970631801441E-002
8.5976326E-001	2.578054901169066E-002
8.6073172E-001	2.568511717312610E-002
8.6174816E-001	2.560089360488627E-002
8.6272544E-001	2.560876147300700E-002
8.6374551E-001	2.596050224532598E-002
8.6472464E-001	2.570809844687683E-002
8.6573046E-001	2.587687634517832E-002
8.6673075E-001	2.577186963107034E-002
8.6772209E-001	2.594584563548155E-002
8.6870015E-001	2.610713203196136E-002
8.6970222E-001	2.611209415516885E-002
8.7074345E-001	2.633363176701876E-002
8.7176132E-001	2.651156692242315E-002
8.7271494E-001	2.624381272626969E-002
8.7374693E-001	2.649504395833985E-002
8.7474763E-001	2.663588406865275E-002
8.7573767E-001	2.652427136062024E-002
8.7672830E-001	2.643631663434454E-002
8.7775779E-001	2.684623955191509E-002
8.7874538E-001	2.681782765188695E-002
8.7976736E-001	2.649553297304532E-002
8.8075668E-001	2.666205034824071E-002
8.8176197E-001	2.695390197844680E-002
8.8273335E-001	2.664533854582371E-002
8.8374197E-001	2.668092662782029E-002
8.8469750E-001	2.679714830308544E-002
8.8572383E-001	2.717823831614968E-002
8.8674855E-001	2.725963218974720E-002
8.8776654E-001	2.721306412417368E-002
8.8875377E-001	2.709103649460809E-002
8.8972664E-001	2.709589757385755E-002
8.9074171E-001	2.683890585377105E-002
8.9171851E-001	2.718450402888495E-002
8.9271796E-001	2.710722591794741E-002
8.9370430E-001	2.755995052112137E-002
8.9473528E-001	2.745188443210506E-002
8.9572245E-001	2.732513372199619E-002
8.9673024E-001	2.754892290556316E-002
8.9773721E-001	2.764377643531146E-002
8.9870596E-001	2.753058736704606E-002
8.9972657E-001	2.768888066466030E-002
9.0073133E-001	2.756364867686731E-002
9.0172607E-001	2.757177217820961E-002
9.0273869E-001	2.788280771951790E-002
9.0374118E-001	2.814142781476665E-002
9.0472311E-001	2.794475016861081E-002
9.0571773E-001	2.785647429993748E-002
9.0672976E-001	2.806303039367847E-002
9.0774471E-001	2.794069823004491E-002
9.0874791E-001	2.809645253208547E-002
9.0962565E-001	2.788042176347483E-002
9.1002172E-001	4.443627647284804E-002