Ewe/V	<I>/mA	
8.1730831E-001	-6.632500648498535E+000
8.1779176E-001	-4.510073507900245E+000
8.1878918E-001	-2.274820170388914E+000
8.1977981E-001	-1.229402802517544E+000
8.2076377E-001	-6.743378841046255E-001
8.2178760E-001	-3.550027887468774E-001
8.2280183E-001	-1.553919286177290E-001
8.2377362E-001	-2.218218478868686E-002
8.2477838E-001	6.746053532892982E-002
8.2577485E-001	1.354807634707427E-001
8.2677138E-001	1.866273442816243E-001
8.2778841E-001	2.245071862954537E-001
8.2880062E-001	2.567889185109555E-001
8.3101404E-001	3.193828757322905E-001
8.3200163E-001	3.357913229966512E-001
8.3301002E-001	3.510962747569599E-001
8.3397877E-001	3.647442712406961E-001
8.3497596E-001	3.766618738122771E-001
8.3597898E-001	3.872193824527583E-001
8.3699030E-001	3.977032809748353E-001
8.3799303E-001	4.047502600058490E-001
8.3900368E-001	4.131916636656516E-001
8.3996236E-001	4.202486099697467E-001
8.4097177E-001	4.264113018777049E-001
8.4195596E-001	4.339988190414652E-001
8.4298366E-001	4.384536377963646E-001
8.4400862E-001	4.439872071573845E-001
8.4497344E-001	4.498584951831814E-001
8.4595501E-001	4.531676336738286E-001
8.4696335E-001	4.570141173783817E-001
8.4799057E-001	4.614189828441082E-001
8.4895998E-001	4.647569259689135E-001
8.4994292E-001	4.687607476432820E-001
8.5096747E-001	4.728586093822065E-001
8.5197854E-001	4.735055424196108E-001
8.5293669E-001	4.769028436639802E-001
8.5395074E-001	4.790433042218428E-001
8.5495055E-001	4.821423990119005E-001
8.5596412E-001	4.853676744151549E-001
8.5696667E-001	4.866409721303526E-001
8.5794288E-001	4.899399698341051E-001
8.5895360E-001	4.912573390126595E-001
8.5993475E-001	4.929241299184173E-001
8.6096567E-001	4.965086309233733E-001
8.6198193E-001	4.989125116999868E-001
8.6294633E-001	5.002492603175117E-001
8.6400187E-001	5.008900963950769E-001
8.6498868E-001	5.037254840296335E-001
8.6597002E-001	5.035526100995131E-001
8.6696398E-001	5.053941403859312E-001
8.6796641E-001	5.065416158121532E-001
8.6895674E-001	5.085413018086289E-001
8.6994690E-001	5.100155672396642E-001
8.7095177E-001	5.114007719914406E-001
8.7195456E-001	5.122972174503260E-001
8.7295812E-001	5.134512760183068E-001
8.7398267E-001	5.154099390537112E-001
8.7495530E-001	5.174034322817143E-001
8.7596494E-001	5.173080707761644E-001
8.7695074E-001	5.181492086305903E-001
8.7797374E-001	5.208146470942268E-001
8.7897712E-001	5.204443808249390E-001
8.7994421E-001	5.210371617117913E-001
8.8095009E-001	5.225607255649560E-001
8.8194585E-001	5.239107568712584E-001
8.8294578E-001	5.255742024267684E-001
8.8397753E-001	5.245842232212290E-001
8.8494128E-001	5.265623944781296E-001
8.8593143E-001	5.277726460006456E-001
8.8696206E-001	5.279290182922596E-001
8.8792932E-001	5.290553988438305E-001
8.8892841E-001	5.301568309922065E-001
8.8993555E-001	5.312161976537477E-001
8.9093190E-001	5.314855456621483E-001
8.9194912E-001	5.327110103119956E-001
8.9295405E-001	5.326613387862178E-001
8.9394051E-001	5.342247493492998E-001
8.9496171E-001	5.349370283573598E-001
8.9593244E-001	5.350629692004691E-001
8.9695472E-001	5.371982308387349E-001
8.9794558E-001	5.371830897505543E-001
8.9894742E-001	5.374170594621401E-001
8.9995760E-001	5.381864710683217E-001
9.0097570E-001	5.393441922607863E-001
9.0192825E-001	5.398369600619422E-001
9.0295637E-001	5.410541405801554E-001
9.0394849E-001	5.410651443265628E-001
9.0496171E-001	5.413414046550837E-001
9.0595341E-001	5.423247290586701E-001
9.0692753E-001	5.431005152141921E-001
9.0797126E-001	5.434540004951751E-001
9.0893728E-001	5.451235036964404E-001
9.0974218E-001	5.446434695233577E-001
9.1009045E-001	5.422158092260361E-001
9.0954572E-001	1.963412235837119E-001
9.0853083E-001	-1.033323235734254E-001
9.0753871E-001	-2.336599559929757E-001
9.0655351E-001	-3.042271504840728E-001
9.0493917E-001	-3.548713783286157E-001
9.0335095E-001	-3.864700018862344E-001
9.0234298E-001	-3.996680597870821E-001
9.0134573E-001	-4.114823977366791E-001
8.9973217E-001	-4.310851494563313E-001
8.9815944E-001	-4.470952621630921E-001
8.9715534E-001	-4.522537221302403E-001
8.9615744E-001	-4.595444617523725E-001
8.9515901E-001	-4.633206811181338E-001
8.9414132E-001	-4.685989086017264E-001
8.9315867E-001	-4.736914927760755E-001
8.9216191E-001	-4.754161389527987E-001
8.9113486E-001	-4.789339711662359E-001
8.9017230E-001	-4.820013979843472E-001
8.8912499E-001	-4.864432115606689E-001
8.8815874E-001	-4.895766814167253E-001
8.8714194E-001	-4.914413303857463E-001
8.8614285E-001	-4.945329112000770E-001
8.8516754E-001	-4.959058295830072E-001
8.8416666E-001	-5.000739126687968E-001
8.8314545E-001	-5.009142276287708E-001
8.8216549E-001	-5.030667924477426E-001
8.8112718E-001	-5.062196184448613E-001
8.8015294E-001	-5.079420358369457E-001
8.7916172E-001	-5.094435187854929E-001
8.7816888E-001	-5.112961478714286E-001
8.7712985E-001	-5.133957410835492E-001
8.7616700E-001	-5.148425268196135E-001
8.7515205E-001	-5.163277997291911E-001
8.7417293E-001	-5.190418984680527E-001
8.7316656E-001	-5.208019486587254E-001
8.7215877E-001	-5.225982765175381E-001
8.7117481E-001	-5.232349666159684E-001
8.7016529E-001	-5.260098182236366E-001
8.6915612E-001	-5.267214823607640E-001
8.6816162E-001	-5.277606403400199E-001
8.6717618E-001	-5.289953509691809E-001
8.6617333E-001	-5.302770859015151E-001
8.6515874E-001	-5.325608089720042E-001
8.6415231E-001	-5.337986758165592E-001
8.6315465E-001	-5.358693493958704E-001
8.6215895E-001	-5.357157724340800E-001
8.6119026E-001	-5.382042979261117E-001
8.6017531E-001	-5.414465175764187E-001
8.5915500E-001	-5.401748983821417E-001
8.5816538E-001	-5.416210740294662E-001
8.5718024E-001	-5.437338823641058E-001
8.5618764E-001	-5.439439401296644E-001
8.5517401E-001	-5.453418629848237E-001
8.5415643E-001	-5.472743527082325E-001
8.5319489E-001	-5.474687112334538E-001
8.5218006E-001	-5.493779162560308E-001
8.5119104E-001	-5.509780112648421E-001
8.5017073E-001	-5.520971309227329E-001
8.4916067E-001	-5.539074136371145E-001
8.4814984E-001	-5.552308637815147E-001
8.4716463E-001	-5.547752197671105E-001
8.4617501E-001	-5.566668999436795E-001
8.4518439E-001	-5.576751970442091E-001
8.4416592E-001	-5.584783085372429E-001
8.4318185E-001	-5.604278961647085E-001
8.4218079E-001	-5.610086142588226E-001
8.4117061E-001	-5.619962699035455E-001
8.4018552E-001	-5.633388933074581E-001
8.3918577E-001	-5.648497739658431E-001
8.3818507E-001	-5.645618439858056E-001
8.3718723E-001	-5.654492812192711E-001
8.3620995E-001	-5.674215586839524E-001
8.3517653E-001	-5.688209038914618E-001
8.3418024E-001	-5.691533044376209E-001
8.3318043E-001	-5.709031935358162E-001
8.3220351E-001	-5.721892512757840E-001
8.3117616E-001	-5.726365969782816E-001
8.3015859E-001	-5.761515339765033E-001
8.2919782E-001	-5.761785392575289E-001
8.2815397E-001	-5.754506510267570E-001
8.2717657E-001	-5.780575736120932E-001
8.2615900E-001	-5.787831385231872E-001
8.2519555E-001	-5.795464405878681E-001
8.2419741E-001	-5.798744100628292E-001
8.2317752E-001	-5.810619071469691E-001
8.2219487E-001	-5.819658430947303E-001
8.2097369E-001	-3.835935781828566E-001
8.1891972E-001	-5.868994719287857E-001
8.1792516E-001	-5.742562886770992E-001
8.1692600E-001	-5.831411542282225E-001
8.1591517E-001	-5.829305691650060E-001
8.1492394E-001	-5.849568788228292E-001
8.1393129E-001	-5.817629002489229E-001
8.1292313E-001	-5.821811112342399E-001
8.1192762E-001	-5.845964002295490E-001
8.1094182E-001	-5.847466536664530E-001
8.1029689E-001	-5.849659371400864E-001
8.1001198E-001	-5.816737636923790E-001
8.1062120E-001	-2.385953150560720E-001
8.1166744E-001	6.637658387665279E-002
8.1266171E-001	2.032610342168487E-001
8.1363255E-001	2.781489692198749E-001
8.1464744E-001	3.229108521928232E-001
8.1562424E-001	3.530013717608416E-001
8.1719714E-001	3.886817187918057E-001
8.1885290E-001	4.157679496942785E-001
8.1981277E-001	4.261367432967109E-001
8.2083726E-001	4.348509622870806E-001
8.2183665E-001	4.417315306552210E-001
8.2284665E-001	4.477177819952236E-001
8.2384634E-001	4.553537986058356E-001
8.2484359E-001	4.603852797665482E-001
8.2587105E-001	4.647916035144597E-001
8.2684642E-001	4.686954609700467E-001
8.2784230E-001	4.736399442910955E-001
8.2884943E-001	4.764427026766729E-001
8.2983398E-001	4.798426132588762E-001
8.3084321E-001	4.827128856725826E-001
8.3184451E-001	4.859846406217940E-001
8.3283591E-001	4.884799294206692E-001
8.3384770E-001	4.919410519516179E-001
8.3483696E-001	4.936361515965970E-001
8.3585292E-001	4.968076677795132E-001
8.3682394E-001	4.989057991104229E-001
8.3782959E-001	5.004752334850160E-001
8.3883899E-001	5.026808850500153E-001
8.3983147E-001	5.058609353878412E-001
8.4084165E-001	5.051473388063745E-001
8.4185171E-001	5.079087748546662E-001
8.4283412E-001	5.090673021505148E-001
8.4381711E-001	5.113541635623697E-001
8.4480709E-001	5.132972682504686E-001
8.4582162E-001	5.146250209987304E-001
8.4682977E-001	5.153110717988714E-001
8.4781975E-001	5.159183799061884E-001
8.4883863E-001	5.175138669094026E-001
8.4981740E-001	5.196436605283181E-001
8.5083836E-001	5.200445255076183E-001
8.5183614E-001	5.212531647595036E-001
8.5280937E-001	5.223462715373550E-001
8.5383165E-001	5.235864983078828E-001
8.5480720E-001	5.232173120525347E-001
8.5583353E-001	5.258504295710571E-001
8.5681397E-001	5.261850430491566E-001
8.5781175E-001	5.275411723425547E-001
8.5881847E-001	5.279299115396245E-001
8.5983247E-001	5.296105552121002E-001
8.6082798E-001	5.315548784049640E-001
8.6180818E-001	5.316066140363923E-001
8.6283314E-001	5.310426271166140E-001
8.6382234E-001	5.328741778484964E-001
8.6483049E-001	5.328279173117039E-001
8.6583918E-001	5.338731257810867E-001
8.6682546E-001	5.335950901808793E-001
8.6782217E-001	5.354433203863325E-001
8.6885774E-001	5.360868416292490E-001
8.6981982E-001	5.354070626270684E-001
8.7079775E-001	5.366751639716361E-001
8.7179875E-001	5.383890154532489E-001
8.7281454E-001	5.390759165308121E-001
8.7383157E-001	5.382081683955882E-001
8.7481803E-001	5.404450214377281E-001
8.7582773E-001	5.397702881742177E-001
8.7680650E-001	5.413377078887560E-001
8.7782347E-001	5.423085184939698E-001
8.7881982E-001	5.426162449110843E-001
8.7982106E-001	5.425297477337994E-001
8.8082570E-001	5.422778057555355E-001
8.8181323E-001	5.441524487415652E-001
8.8283336E-001	5.442280107682262E-001
8.8379699E-001	5.446351772080025E-001
8.8483208E-001	5.454829988457899E-001
8.8581163E-001	5.458251736891846E-001
8.8679677E-001	5.463833384736940E-001
8.8778275E-001	5.469286564188751E-001
8.8881379E-001	5.483835927432499E-001
8.8980693E-001	5.470565720655358E-001
8.9080602E-001	5.480222233953631E-001
8.9181060E-001	5.493020928348411E-001
8.9280194E-001	5.499181297469136E-001
8.9383113E-001	5.500244682189077E-001
8.9484954E-001	5.512027813786520E-001
8.9578170E-001	5.517358139547408E-001
8.9682353E-001	5.521256349953367E-001
8.9782649E-001	5.523086690544456E-001
8.9880520E-001	5.525014963660357E-001
8.9982337E-001	5.535197672431380E-001
9.0079665E-001	5.547859270290481E-001
9.0179712E-001	5.535522233321197E-001
9.0282255E-001	5.555051745193023E-001
9.0381014E-001	5.550276626088296E-001
9.0481496E-001	5.555226240098305E-001
9.0580398E-001	5.558462707693985E-001
9.0683240E-001	5.556693685441588E-001
9.0783137E-001	5.569589653022167E-001
9.0881121E-001	5.576865649065077E-001
9.0966493E-001	5.580065643795642E-001
9.1004467E-001	5.563689917325974E-001
9.0951985E-001	2.094660411628342E-001
9.0850431E-001	-9.252198810436021E-002
9.0751529E-001	-2.231185832937248E-001
9.0589613E-001	-3.147569471865133E-001
9.0430421E-001	-3.590231138232047E-001
9.0331751E-001	-3.772493439539719E-001
9.0229183E-001	-3.926128243337921E-001
9.0067166E-001	-4.116906381999517E-001
8.9911699E-001	-4.323678804380151E-001
8.9810574E-001	-4.387748759547598E-001
8.9710146E-001	-4.449697872118312E-001
8.9611328E-001	-4.507625818093217E-001
8.9510703E-001	-4.553624514353016E-001
8.9411229E-001	-4.601955960327304E-001
8.9310694E-001	-4.640900360836078E-001
8.9207816E-001	-4.685474515781696E-001
8.9108574E-001	-4.725768738315406E-001
8.9012855E-001	-4.749736080539302E-001
8.8912547E-001	-4.793046626223552E-001
8.8810283E-001	-4.801182903099930E-001
8.8710546E-001	-4.844103648399365E-001
8.8609529E-001	-4.870731538250336E-001
8.8512504E-001	-4.893864969944668E-001
8.8415098E-001	-4.923628464230294E-001
8.8311267E-001	-4.953304431406718E-001
8.8211870E-001	-4.960659932012561E-001
8.8113248E-001	-4.998562517409590E-001
8.8013446E-001	-4.999808585010692E-001
8.7913334E-001	-5.038677948094632E-001
8.7812340E-001	-5.056012116167441E-001
8.7713045E-001	-5.079757370176665E-001
8.7609744E-001	-5.096231123613837E-001
8.7512362E-001	-5.115693022560173E-001
8.7411857E-001	-5.131971299730700E-001
8.7310117E-001	-5.156127930643555E-001
8.7212020E-001	-5.159903902203347E-001
8.7111574E-001	-5.177804152440055E-001
8.7013376E-001	-5.189030000615755E-001
8.6909562E-001	-5.204503940187557E-001
8.6813128E-001	-5.222461783698036E-001
8.6710942E-001	-5.232410370693645E-001
8.6613268E-001	-5.250526753048161E-001
8.6513442E-001	-5.264172644307692E-001
8.6413324E-001	-5.278538381367657E-001
8.6312193E-001	-5.293507637967050E-001
8.6213696E-001	-5.313656835088745E-001
8.6113763E-001	-5.322308451222950E-001
8.6013603E-001	-5.361689463058230E-001
8.5911900E-001	-5.356737381118968E-001
8.5813427E-001	-5.353689300240090E-001
8.5712796E-001	-5.373954759472747E-001
8.5611898E-001	-5.386028739512856E-001
8.5513502E-001	-5.403671350928834E-001
8.5412866E-001	-5.414879295886263E-001
8.5311723E-001	-5.426891639795457E-001
8.5211086E-001	-5.443979458528618E-001
8.5114270E-001	-5.457059779420641E-001
8.5013771E-001	-5.472448890513206E-001
8.4911036E-001	-5.486442260194675E-001
8.4810984E-001	-5.501340226564100E-001
8.4712183E-001	-5.497733170809660E-001
8.4612530E-001	-5.524952450140730E-001
8.4512180E-001	-5.521358972842183E-001
8.4412509E-001	-5.539268350572373E-001
8.4312075E-001	-5.545322104387367E-001
8.4212393E-001	-5.555860499354157E-001
8.4113187E-001	-5.573646527118878E-001
8.4013128E-001	-5.580661490581562E-001
8.3913600E-001	-5.586646855300557E-001
8.3815211E-001	-5.592821136611503E-001
8.3712989E-001	-5.604371343764036E-001
8.3613706E-001	-5.629888673464052E-001
8.3514392E-001	-5.631235126818019E-001
8.3413631E-001	-5.637492129919846E-001
8.3314228E-001	-5.654546515615033E-001
8.3218217E-001	-5.658790283509472E-001
8.3112705E-001	-5.680590210861598E-001
8.3014590E-001	-5.686303498635521E-001
8.2914746E-001	-5.695084509920569E-001
8.2815409E-001	-5.705379359654881E-001
8.2716841E-001	-5.715702857284448E-001
8.2614088E-001	-5.725228745407134E-001
8.2515305E-001	-5.743977406023382E-001
8.2415766E-001	-5.748209947903103E-001
8.2313335E-001	-5.759950189008602E-001
8.2214999E-001	-5.785557602576548E-001
8.2114160E-001	-5.777854309555873E-001
8.2014811E-001	-5.793530991650195E-001
8.1915420E-001	-5.807973076988522E-001
8.1815571E-001	-5.804748962882762E-001
8.1714571E-001	-5.819552937184369E-001
8.1612325E-001	-5.857128657738784E-001
8.1512791E-001	-5.849706592836554E-001
8.1414109E-001	-5.860037007175052E-001
8.1315738E-001	-5.858943292704808E-001
8.1212127E-001	-5.869161048177869E-001
8.1115448E-001	-5.883136925342969E-001
8.1039560E-001	-5.902131785750393E-001
8.1006545E-001	-5.881600230932236E-001
8.1062770E-001	-2.390271842558007E-001
8.1164700E-001	7.466383891015915E-002
8.1321669E-001	2.499722867414389E-001
8.1481534E-001	3.339709631034306E-001
8.1583422E-001	3.616766348694608E-001
8.1682032E-001	3.844228829329275E-001
8.1841826E-001	4.107273729574938E-001
8.2003528E-001	4.309167188647685E-001
8.2104903E-001	4.396830296032999E-001
8.2205111E-001	4.462524980744562E-001
8.2303947E-001	4.535910650084380E-001
8.2402474E-001	4.595597967012096E-001
8.2504737E-001	4.637374709964561E-001
8.2604909E-001	4.679388275519667E-001
8.2702136E-001	4.727604216513495E-001
8.2804728E-001	4.775892164503242E-001
8.2903248E-001	4.800003918777929E-001
8.3004367E-001	4.840096971833310E-001
8.3104086E-001	4.872446540770561E-001
8.3204830E-001	4.892822902583722E-001
8.3303058E-001	4.918254423518373E-001
8.3403552E-001	4.950857500053925E-001
8.3504355E-001	4.970947046755958E-001
8.3603531E-001	4.995706197418341E-001
8.3704442E-001	5.019280848205980E-001
8.3801466E-001	5.034147578997663E-001
8.3901954E-001	5.055023395744827E-001
8.4001511E-001	5.057687189144295E-001
8.4103191E-001	5.090325665003608E-001
8.4204084E-001	5.104795212052506E-001
8.4301931E-001	5.132939967324095E-001
8.4401029E-001	5.145234474823626E-001
8.4502220E-001	5.160768067802415E-001
8.4602857E-001	5.175939134466225E-001
8.4702128E-001	5.186343189145972E-001
8.4803325E-001	5.195263023527011E-001
8.4902388E-001	5.210410407250969E-001
8.5003364E-001	5.219398008238150E-001
8.5104668E-001	5.235075486713052E-001
8.5199988E-001	5.244192065926097E-001
8.5300094E-001	5.260909782550723E-001
8.5401702E-001	5.252315290471783E-001
8.5502774E-001	5.265197141007308E-001
8.5601693E-001	5.277841698017998E-001
8.5702336E-001	5.296971943129654E-001
8.5803044E-001	5.305035778981018E-001
8.5901761E-001	5.311072617663930E-001
8.6001039E-001	5.322322808832487E-001
8.6100626E-001	5.335355402978698E-001
8.6200887E-001	5.343652429311896E-001
8.6300904E-001	5.338201419799233E-001
8.6402881E-001	5.346507607027888E-001
8.6501789E-001	5.361059396651351E-001
8.6601311E-001	5.371076646961477E-001
8.6702091E-001	5.375377563677286E-001
8.6802548E-001	5.375781185474509E-001
8.6901969E-001	5.386800835343157E-001
8.6999941E-001	5.390860285747294E-001
8.7101775E-001	5.402333657133633E-001
8.7200522E-001	5.409877310278978E-001
8.7302077E-001	5.411885184546303E-001
8.7401992E-001	5.418778766034551E-001
8.7499410E-001	5.421303388923633E-001
8.7601352E-001	5.431652119899719E-001
8.7701982E-001	5.443361602080561E-001
8.7803108E-001	5.444443655793503E-001
8.7904257E-001	5.451615461891164E-001
8.8001949E-001	5.455432633819468E-001
8.8101459E-001	5.450158535120337E-001
8.8203037E-001	5.471417435661081E-001
8.8303161E-001	5.466000276767371E-001
8.8401902E-001	5.468416648972330E-001
8.8502407E-001	5.483906401216005E-001
8.8600731E-001	5.485632448928410E-001
8.8701087E-001	5.481287352380448E-001
8.8802677E-001	5.505941523688087E-001
8.8903034E-001	5.493506737136582E-001
8.9001429E-001	5.507389154312872E-001
8.9101583E-001	5.506226409054820E-001
8.9201730E-001	5.502180580659548E-001
8.9301717E-001	5.519536667109830E-001
8.9402902E-001	5.530031287876338E-001
8.9501232E-001	5.530782316281182E-001
8.9601266E-001	5.540671441209577E-001
8.9702892E-001	5.536099777197059E-001
8.9802164E-001	5.548921954914245E-001
8.9901125E-001	5.550748313928242E-001
9.0001631E-001	5.558454930441656E-001
9.0103287E-001	5.565735626278934E-001
9.0199327E-001	5.558750026961008E-001
9.0300113E-001	5.556098696333409E-001
9.0400058E-001	5.573807414555181E-001
9.0502477E-001	5.584139825858621E-001
9.0599960E-001	5.579139099266817E-001
9.0700692E-001	5.587333010960158E-001
9.0802234E-001	5.591847805416217E-001
9.0902621E-001	5.603324753696594E-001
9.0978932E-001	5.602950288479516E-001
9.1003704E-001	5.633436441421509E-001