Ewe/V	<I>/mA	
8.1728542E-001	-6.861310005187988E+000
8.1778103E-001	-4.659657009328360E+000
8.1879526E-001	-2.352072796172813E+000
8.1978035E-001	-1.272249083964917E+000
8.2079935E-001	-7.027380650610322E-001
8.2178152E-001	-3.740728612074342E-001
8.2278359E-001	-1.695707414929741E-001
8.2378376E-001	-3.454530977342776E-002
8.2476735E-001	5.855592012396466E-002
8.2577115E-001	1.289057330125369E-001
8.2678723E-001	1.789774672280733E-001
8.2778758E-001	2.197312852367758E-001
8.2877225E-001	2.526818752252771E-001
8.3098757E-001	3.147078522785929E-001
8.3194494E-001	3.317358577089022E-001
8.3297783E-001	3.477479866614366E-001
8.3394951E-001	3.622221670687267E-001
8.3495611E-001	3.753101374274896E-001
8.3596575E-001	3.854353884046535E-001
8.3696705E-001	3.960641192563337E-001
8.3795577E-001	4.038522823139968E-001
8.3898056E-001	4.118753763736187E-001
8.3997905E-001	4.193176223125885E-001
8.4098673E-001	4.256186744159400E-001
8.4193820E-001	4.307646418705444E-001
8.4295231E-001	4.373618819811833E-001
8.4395409E-001	4.420696298164941E-001
8.4498793E-001	4.479727718374715E-001
8.4596848E-001	4.515801699420003E-001
8.4696180E-001	4.561602313576980E-001
8.4795654E-001	4.596773763662503E-001
8.4896684E-001	4.643689847729844E-001
8.4995800E-001	4.671290401012218E-001
8.5095698E-001	4.707448674569150E-001
8.5194099E-001	4.738791388368817E-001
8.5292232E-001	4.769229686959093E-001
8.5392541E-001	4.794878995342735E-001
8.5494888E-001	4.816806731295031E-001
8.5596949E-001	4.847212032285846E-001
8.5696423E-001	4.869112540113392E-001
8.5795945E-001	4.887163308913385E-001
8.5895348E-001	4.920925397140179E-001
8.5995793E-001	4.936075579622274E-001
8.6096710E-001	4.958394283578471E-001
8.6193734E-001	4.970733937075611E-001
8.6293823E-001	4.994296931406668E-001
8.6394882E-001	5.012252440925566E-001
8.6495870E-001	5.026085443040809E-001
8.6595231E-001	5.033767682117656E-001
8.6692721E-001	5.038268023702721E-001
8.6795336E-001	5.064485089537418E-001
8.6892599E-001	5.079358707231991E-001
8.6991811E-001	5.091775766878737E-001
8.7095279E-001	5.114816450020521E-001
8.7194765E-001	5.127316550146563E-001
8.7293345E-001	5.144404243228831E-001
8.7393916E-001	5.139539130037596E-001
8.7495446E-001	5.172585637192242E-001
8.7594408E-001	5.171653424361935E-001
8.7694436E-001	5.194241918628979E-001
8.7794846E-001	5.197654207915630E-001
8.7893748E-001	5.204478356789410E-001
8.7993693E-001	5.206680234126013E-001
8.8094580E-001	5.227926297624288E-001
8.8192689E-001	5.233484550024845E-001
8.8294232E-001	5.246344650933477E-001
8.8391507E-001	5.269019437761511E-001
8.8493574E-001	5.262612726391036E-001
8.8593251E-001	5.263269533362039E-001
8.8692576E-001	5.281652344698449E-001
8.8792837E-001	5.295513787194208E-001
8.8894373E-001	5.306071545708928E-001
8.8994509E-001	5.313368369091651E-001
8.9094007E-001	5.308721534984748E-001
8.9193451E-001	5.325967192990531E-001
8.9291900E-001	5.339825568759160E-001
8.9391172E-001	5.346638676394466E-001
8.9491421E-001	5.362472616562934E-001
8.9593309E-001	5.355116548826011E-001
8.9690119E-001	5.358194679831201E-001
8.9790732E-001	5.372452709651976E-001
8.9893103E-001	5.377199490005786E-001
8.9992106E-001	5.391408885951110E-001
9.0090406E-001	5.402827157688863E-001
9.0193117E-001	5.389854376952736E-001
9.0292656E-001	5.412884150698254E-001
9.0391022E-001	5.415881107439358E-001
9.0493441E-001	5.422344968953539E-001
9.0594530E-001	5.432700979667500E-001
9.0691799E-001	5.439293480788665E-001
9.0791380E-001	5.436677149735321E-001
9.0893030E-001	5.453559028350607E-001
9.0971005E-001	5.455089831374274E-001
9.1011721E-001	5.392881855368614E-001
9.0954524E-001	1.975995663380403E-001
9.0852821E-001	-1.027739607252365E-001
9.0755165E-001	-2.337806178649733E-001
9.0652364E-001	-3.034330247654120E-001
9.0494806E-001	-3.538567415358307E-001
9.0334678E-001	-3.853727444451414E-001
9.0232772E-001	-4.002029680385979E-001
9.0133071E-001	-4.110537912344938E-001
8.9975929E-001	-4.309110016381434E-001
8.9814174E-001	-4.463592742088951E-001
8.9715314E-001	-4.530637433818363E-001
8.9615083E-001	-4.585752495578250E-001
8.9516062E-001	-4.635750661205740E-001
8.9413124E-001	-4.690377240268777E-001
8.9315999E-001	-4.727500252126307E-001
8.9211309E-001	-4.769048200005521E-001
8.9113277E-001	-4.790847103039386E-001
8.9014840E-001	-4.823887342143613E-001
8.8915300E-001	-4.863452902640258E-001
8.8815325E-001	-4.873144445264526E-001
8.8714629E-001	-4.911876224452580E-001
8.8616538E-001	-4.940009259419256E-001
8.8514429E-001	-4.967862649820741E-001
8.8416892E-001	-4.993762820055485E-001
8.8317090E-001	-5.010866039953692E-001
8.8217598E-001	-5.039233511934675E-001
8.8114446E-001	-5.053649961610223E-001
8.8015157E-001	-5.070970533038670E-001
8.7917680E-001	-5.088556890869294E-001
8.7817162E-001	-5.114400230991141E-001
8.7714136E-001	-5.134818411931121E-001
8.7614679E-001	-5.162535739969183E-001
8.7517464E-001	-5.162527130488161E-001
8.7417608E-001	-5.186608007073339E-001
8.7317663E-001	-5.203350920504839E-001
8.7214768E-001	-5.210984435663244E-001
8.7116289E-001	-5.227597225556337E-001
8.7015939E-001	-5.242411668997580E-001
8.6916518E-001	-5.266572239388413E-001
8.6816454E-001	-5.272324619743323E-001
8.6714429E-001	-5.293224060325556E-001
8.6612433E-001	-5.303442601949682E-001
8.6514729E-001	-5.322257835780606E-001
8.6415291E-001	-5.332192851977782E-001
8.6313999E-001	-5.349230062656076E-001
8.6215091E-001	-5.367222629091941E-001
8.6116105E-001	-5.373668867292505E-001
8.6015898E-001	-5.392387472009927E-001
8.5914177E-001	-5.406401307626982E-001
8.5816962E-001	-5.417780864013664E-001
8.5716230E-001	-5.429935626935087E-001
8.5613924E-001	-5.446590824313233E-001
8.5515016E-001	-5.448395030828008E-001
8.5413581E-001	-5.466391853561312E-001
8.5315502E-001	-5.471392750119186E-001
8.5212159E-001	-5.488855203619165E-001
8.5114396E-001	-5.493192187992717E-001
8.5016561E-001	-5.510416698320557E-001
8.4915698E-001	-5.522505055314721E-001
8.4816605E-001	-5.531154273521314E-001
8.4714627E-001	-5.535190549557125E-001
8.4619790E-001	-5.565472944146252E-001
8.4517354E-001	-5.560515632038010E-001
8.4417027E-001	-5.580924620158925E-001
8.4316641E-001	-5.586759312237692E-001
8.4217179E-001	-5.610825326249742E-001
8.4117049E-001	-5.607732001389869E-001
8.4017640E-001	-5.611631379789719E-001
8.3919024E-001	-5.632728210081694E-001
8.3817703E-001	-5.635705101361443E-001
8.3715826E-001	-5.651016066488204E-001
8.3616138E-001	-5.664275200240816E-001
8.3517814E-001	-5.674933665555644E-001
8.3416802E-001	-5.687118015837189E-001
8.3317256E-001	-5.700280529043029E-001
8.3217847E-001	-5.712929795026387E-001
8.3115882E-001	-5.721045776102756E-001
8.3019704E-001	-5.734122353317459E-001
8.2918859E-001	-5.744076350626885E-001
8.2816827E-001	-5.750438545217915E-001
8.2717007E-001	-5.768869471076541E-001
8.2616132E-001	-5.774472546891207E-001
8.2517111E-001	-5.782992733470618E-001
8.2417828E-001	-5.780211516356619E-001
8.2315284E-001	-5.797124362872177E-001
8.2214922E-001	-5.817062187152691E-001
8.2116616E-001	-5.818052119558796E-001
8.2017308E-001	-5.827689107956489E-001
8.1918573E-001	-5.832386113165517E-001
8.1817907E-001	-5.845125295759510E-001
8.1716031E-001	-5.867352365915250E-001
8.1619287E-001	-5.897232949190458E-001
8.1514001E-001	-5.892088909600179E-001
8.1416041E-001	-5.896231705566795E-001
8.1317568E-001	-5.889409224369682E-001
8.1219637E-001	-5.916642511978600E-001
8.1116372E-001	-5.912441502824155E-001
8.1042391E-001	-5.922000245476760E-001
8.1009978E-001	-5.904442220926285E-001
8.1069070E-001	-2.425621079524900E-001
8.1167811E-001	6.958273125767533E-002
8.1265604E-001	2.087048041892050E-001
8.1484050E-001	3.268887195059857E-001
8.1582648E-001	3.555407626584870E-001
8.1685799E-001	3.796222353736614E-001
8.1789017E-001	3.944094958119226E-001
8.2004857E-001	4.279141511363429E-001
8.2104743E-001	4.362851974687411E-001
8.2204711E-001	4.424753620965571E-001
8.2304287E-001	4.488079113331409E-001
8.2403916E-001	4.554718265548292E-001
8.2506549E-001	4.600829993202789E-001
8.2605046E-001	4.647620362933687E-001
8.2705176E-001	4.703819626609711E-001
8.2803553E-001	4.735265359980314E-001
8.2904941E-001	4.771161200088532E-001
8.3005565E-001	4.801304750798305E-001
8.3104813E-001	4.837963580299476E-001
8.3207560E-001	4.860987141283348E-001
8.3304220E-001	4.885055303678012E-001
8.3406705E-001	4.916423186357610E-001
8.3505452E-001	4.941112285584284E-001
8.3604920E-001	4.959495822660038E-001
8.3707541E-001	4.989447999998333E-001
8.3805132E-001	4.997195399902008E-001
8.3907974E-001	5.025112486177941E-001
8.4004766E-001	5.042891432286667E-001
8.4105754E-001	5.064089865558357E-001
8.4203744E-001	5.073047396130743E-001
8.4304065E-001	5.104929013078809E-001
8.4403998E-001	5.115546680626579E-001
8.4504306E-001	5.135815048324215E-001
8.4605211E-001	5.145640557775994E-001
8.4704322E-001	5.149777339344510E-001
8.4803146E-001	5.162460048743949E-001
8.4901440E-001	5.178508722106916E-001
8.5003167E-001	5.190700761269813E-001
8.5102713E-001	5.196764539206589E-001
8.5202783E-001	5.211681060310056E-001
8.5302198E-001	5.223014877222116E-001
8.5401559E-001	5.230627716995677E-001
8.5501724E-001	5.240772544783336E-001
8.5604137E-001	5.268089142772148E-001
8.5701871E-001	5.259564562196237E-001
8.5804123E-001	5.275355978303438E-001
8.5901278E-001	5.286447599596773E-001
8.6001265E-001	5.292022673501879E-001
8.6102927E-001	5.318213120047964E-001
8.6202037E-001	5.320112049414774E-001
8.6301941E-001	5.313856519088374E-001
8.6403465E-001	5.322053422706312E-001
8.6504978E-001	5.324603745994043E-001
8.6601532E-001	5.330926245375172E-001
8.6703134E-001	5.340449297932528E-001
8.6799753E-001	5.345761712151518E-001
8.6902124E-001	5.360529406150056E-001
8.7001497E-001	5.361239961373236E-001
8.7102848E-001	5.373606108810358E-001
8.7199986E-001	5.380037917868163E-001
8.7299478E-001	5.383090773003953E-001
8.7402499E-001	5.392374435439700E-001
8.7501484E-001	5.399676170661660E-001
8.7601542E-001	5.403763774562638E-001
8.7703085E-001	5.411940093035801E-001
8.7801039E-001	5.413873263850979E-001
8.7903082E-001	5.417672211858644E-001
8.8002777E-001	5.419831178212036E-001
8.8101399E-001	5.430680964602201E-001
8.8202322E-001	5.446085402464864E-001
8.8301241E-001	5.436646945597162E-001
8.8401252E-001	5.448278062145349E-001
8.8500750E-001	5.452800808585270E-001
8.8599259E-001	5.453755807480780E-001
8.8702303E-001	5.470161470712087E-001
8.8798767E-001	5.467590762280135E-001
8.8903797E-001	5.473938054981660E-001
8.9001429E-001	5.468852486644336E-001
8.9101291E-001	5.483870559044943E-001
8.9201498E-001	5.483135024612298E-001
8.9300847E-001	5.490673976268496E-001
8.9404124E-001	5.508454531946763E-001
8.9500797E-001	5.510266025833648E-001
8.9599717E-001	5.515835468643608E-001
8.9701992E-001	5.517433869363996E-001
8.9799035E-001	5.513339023938217E-001
8.9901817E-001	5.527543371153154E-001
8.9999539E-001	5.533297558812347E-001
9.0101469E-001	5.543537062002146E-001
9.0200359E-001	5.527465889153431E-001
9.0300012E-001	5.549653774517476E-001
9.0402710E-001	5.554104447540650E-001
9.0501279E-001	5.554240542593103E-001
9.0601152E-001	5.565912074571506E-001
9.0702236E-001	5.569332833316701E-001
9.0799671E-001	5.564773482762284E-001
9.0903336E-001	5.577748950427974E-001
9.0975964E-001	5.565619328245495E-001
9.1004461E-001	5.554771944880486E-001
9.0951568E-001	2.093800682446769E-001
9.0792549E-001	-1.598447593044425E-001
9.0632278E-001	-2.924554418308172E-001
9.0531904E-001	-3.315258915137753E-001
9.0434086E-001	-3.568389863627459E-001
9.0270782E-001	-3.892469769880815E-001
9.0110171E-001	-4.134616954829058E-001
9.0013272E-001	-4.231561103846686E-001
8.9915234E-001	-4.316224306805347E-001
8.9811933E-001	-4.378964444496027E-001
8.9713466E-001	-4.436239101827830E-001
8.9613920E-001	-4.491120599671807E-001
8.9512485E-001	-4.549511248487583E-001
8.9414704E-001	-4.589377287248633E-001
8.9311677E-001	-4.646036807830196E-001
8.9212149E-001	-4.678467631983079E-001
8.9114434E-001	-4.700990945355792E-001
8.9015692E-001	-4.744025124952067E-001
8.8913721E-001	-4.780852068365258E-001
8.8812429E-001	-4.808476468531548E-001
8.8711566E-001	-4.843443672965440E-001
8.8614672E-001	-4.866054470584302E-001
8.8511902E-001	-4.887543933992732E-001
8.8411397E-001	-4.922222309590598E-001
8.8313872E-001	-4.939356162085277E-001
8.8214070E-001	-4.962344168336114E-001
8.8114178E-001	-4.984066676237600E-001
8.8014901E-001	-4.993539920758572E-001
8.7915474E-001	-5.020723909854743E-001
8.7815350E-001	-5.051114641384977E-001
8.7716156E-001	-5.056301983649880E-001
8.7613815E-001	-5.090777778173825E-001
8.7515891E-001	-5.100899342496972E-001
8.7415671E-001	-5.120968137183661E-001
8.7314373E-001	-5.141883092193407E-001
8.7213403E-001	-5.147626796050453E-001
8.7115210E-001	-5.175088470950051E-001
8.7015343E-001	-5.187201503977439E-001
8.6915123E-001	-5.199739531929843E-001
8.6816162E-001	-5.213312459735957E-001
8.6714393E-001	-5.221040133090131E-001
8.6613500E-001	-5.237716533694226E-001
8.6514860E-001	-5.266162724539112E-001
8.6413735E-001	-5.266070491428279E-001
8.6314690E-001	-5.285240601797714E-001
8.6213970E-001	-5.295520405589982E-001
8.6117476E-001	-5.310171898762106E-001
8.6014813E-001	-5.339663107308477E-001
8.5916466E-001	-5.345753819670591E-001
8.5816038E-001	-5.355132023072127E-001
8.5712886E-001	-5.381899551266702E-001
8.5613376E-001	-5.379485523317109E-001
8.5514808E-001	-5.395585769898279E-001
8.5412544E-001	-5.416802261102349E-001
8.5313815E-001	-5.421341479190520E-001
8.5214573E-001	-5.429701627564736E-001
8.5115236E-001	-5.440410238834819E-001
8.5016018E-001	-5.445530564723811E-001
8.4913778E-001	-5.466893959352515E-001
8.4813803E-001	-5.489769628714933E-001
8.4714454E-001	-5.484971011744921E-001
8.4615904E-001	-5.498291751552769E-001
8.4514707E-001	-5.505494355894847E-001
8.4414524E-001	-5.539868353394803E-001
8.4317398E-001	-5.540685010002493E-001
8.4215629E-001	-5.548115460559249E-001
8.4115303E-001	-5.562092766808595E-001
8.4015709E-001	-5.570696731402940E-001
8.3916032E-001	-5.578349436163528E-001
8.3814698E-001	-5.597309581556287E-001
8.3717942E-001	-5.597150262566095E-001
8.3616829E-001	-5.622820879505823E-001
8.3512938E-001	-5.618550142449119E-001
8.3415985E-001	-5.628631653961969E-001
8.3318043E-001	-5.649442566619163E-001
8.3214796E-001	-5.654312813286353E-001
8.3118522E-001	-5.659245217444249E-001
8.3016419E-001	-5.677777105370954E-001
8.2916540E-001	-5.681565375377706E-001
8.2816446E-001	-5.691723789893370E-001
8.2716513E-001	-5.711275951582033E-001
8.2617188E-001	-5.720820221356995E-001
8.2515979E-001	-5.735350242516539E-001
8.2417536E-001	-5.733050624451899E-001
8.2316947E-001	-5.753912433715813E-001
8.2216543E-001	-5.761475499558610E-001
8.2115096E-001	-5.756256551958547E-001
8.2014632E-001	-5.788915820940885E-001
8.1913447E-001	-5.784993105800802E-001
8.1815362E-001	-5.800157347317096E-001
8.1717896E-001	-5.814569066760940E-001
8.1614786E-001	-5.848861761856821E-001
8.1515765E-001	-5.834710177815801E-001
8.1415009E-001	-5.849709348248613E-001
8.1313145E-001	-5.851264393156637E-001
8.1215250E-001	-5.858977351442993E-001
8.1115365E-001	-5.881144414251183E-001
8.1042093E-001	-5.896581355345742E-001
8.1008834E-001	-5.861294940114021E-001
8.1063986E-001	-2.368610464847907E-001
8.1163985E-001	7.419692818960655E-002
8.1262571E-001	2.119998919738760E-001
8.1363326E-001	2.886165597406745E-001
8.1523991E-001	3.478887872644032E-001
8.1684798E-001	3.824748607141713E-001
8.1783652E-001	3.985060490082990E-001
8.1885135E-001	4.092002336487415E-001
8.2045150E-001	4.319283775729295E-001
8.2205862E-001	4.456698756282460E-001
8.2303846E-001	4.523040922447323E-001
8.2405841E-001	4.585324645325102E-001
8.2500941E-001	4.636692581947770E-001
8.2606786E-001	4.685043521774244E-001
8.2705957E-001	4.726267010533434E-001
8.2804930E-001	4.772686202150478E-001
8.2902920E-001	4.806916086992192E-001
8.3005309E-001	4.831648529619859E-001
8.3105040E-001	4.871264033530545E-001
8.3204460E-001	4.894722869015329E-001
8.3303446E-001	4.912552983129199E-001
8.3405507E-001	4.950761861192570E-001
8.3503729E-001	4.970553925189449E-001
8.3605826E-001	4.995366468965194E-001
8.3702695E-001	5.024035752764675E-001
8.3806401E-001	5.040269494106145E-001
8.3905345E-001	5.057439873170839E-001
8.4005582E-001	5.074326531615432E-001
8.4105217E-001	5.087279062306058E-001
8.4205598E-001	5.104925776460938E-001
8.4304035E-001	5.120070633552634E-001
8.4403247E-001	5.141430458325589E-001
8.4502935E-001	5.159977552004236E-001
8.4605592E-001	5.173065117061424E-001
8.4703428E-001	5.179694422637127E-001
8.4804738E-001	5.192418711077051E-001
8.4900558E-001	5.212287143155514E-001
8.5005701E-001	5.228353218120034E-001
8.5103136E-001	5.231523388824870E-001
8.5206234E-001	5.242471537796689E-001
8.5303247E-001	5.243529693622675E-001
8.5401154E-001	5.261368722438688E-001
8.5503048E-001	5.268167225023102E-001
8.5602862E-001	5.285986089896015E-001
8.5703260E-001	5.288006258474347E-001
8.5803050E-001	5.295270267502588E-001
8.5902035E-001	5.300774152412853E-001
8.6002177E-001	5.314010433575502E-001
8.6102670E-001	5.334891169807277E-001
8.6202180E-001	5.339757601365100E-001
8.6302191E-001	5.339487707280837E-001
8.6405510E-001	5.344310336600668E-001
8.6503386E-001	5.359059504966828E-001
8.6603796E-001	5.355489200107471E-001
8.6701828E-001	5.374487593291977E-001
8.6804706E-001	5.367002007697117E-001
8.6901194E-001	5.385574235490207E-001
8.7001556E-001	5.383775383657117E-001
8.7103409E-001	5.391445927294445E-001
8.7201971E-001	5.405806473651396E-001
8.7303305E-001	5.401648300658701E-001
8.7404400E-001	5.406353018881225E-001
8.7503785E-001	5.426326957435115E-001
8.7602121E-001	5.426524955076006E-001
8.7703168E-001	5.436605911951400E-001
8.7802899E-001	5.436751249290650E-001
8.7903374E-001	5.439504318831800E-001
8.8003832E-001	5.451891416146084E-001
8.8102347E-001	5.456289645644753E-001
8.8203543E-001	5.464760730924487E-001
8.8303179E-001	5.463238307513256E-001
8.8401550E-001	5.464976848513317E-001
8.8502640E-001	5.471902974487630E-001
8.8600594E-001	5.472490880898935E-001
8.8701618E-001	5.488916776265009E-001
8.8800299E-001	5.495667574472680E-001
8.8901961E-001	5.495210865335129E-001
8.9001912E-001	5.498735785323525E-001
8.9101505E-001	5.506810413412975E-001
8.9198440E-001	5.510141324767455E-001
8.9300805E-001	5.517749712680504E-001
8.9405036E-001	5.531405921399024E-001
8.9501208E-001	5.527106542079788E-001
8.9598966E-001	5.533000277377300E-001
8.9701605E-001	5.532605667815593E-001
8.9802247E-001	5.539808369920243E-001
8.9902097E-001	5.539750033852187E-001
9.0003669E-001	5.548977163441702E-001
9.0101665E-001	5.566710820416100E-001
9.0201384E-001	5.557621722117856E-001
9.0299869E-001	5.566045490266589E-001
9.0401566E-001	5.571780392619896E-001
9.0499973E-001	5.571566916919801E-001
9.0600944E-001	5.577467084634267E-001
9.0700817E-001	5.588054145771491E-001
9.0803373E-001	5.586184268141493E-001
9.0899163E-001	5.590309328841929E-001
9.0977603E-001	5.595461780031505E-001
9.1002935E-001	5.671331683794651E-001