Ewe/V	<I>/mA	
1.3642023E+000	0.000000000000000E+000
1.3635943E+000	0.000000000000000E+000
1.2308143E+000	-2.056892116512881E+001
1.2328665E+000	-3.024124790576067E+000
1.2363907E+000	-4.390416385579670E-001
1.2397239E+000	-1.268107537855561E-001
1.2430700E+000	-2.057992109521808E-002
1.2464060E+000	4.668598701456977E-002
1.2497553E+000	7.480501849215493E-002
1.2530931E+000	9.898036418372858E-002
1.2564235E+000	1.175892394943974E-001
1.2597724E+000	1.329054064634299E-001
1.2631037E+000	1.443424950489067E-001
1.2664603E+000	1.541482612691483E-001
1.2697812E+000	1.610828540559699E-001
1.2731116E+000	1.848859976003165E-001
1.2764562E+000	1.784349341410554E-001
1.2798082E+000	1.813098996904845E-001
1.2831386E+000	1.854171919176706E-001
1.2864823E+000	1.896816481780685E-001
1.2898101E+000	1.931213195711563E-001
1.2931651E+000	1.963321220270413E-001
1.2964965E+000	1.996941512523192E-001
1.2998559E+000	2.029116731266856E-001
1.3031795E+000	2.049699308995179E-001
1.3065388E+000	2.082370493405854E-001
1.3098789E+000	2.094757420027261E-001
1.3132080E+000	2.121501085967377E-001
1.3165454E+000	2.139489749622019E-001
1.3198674E+000	2.159935188326054E-001
1.3232093E+000	2.186266493041918E-001
1.3265476E+000	2.204182348938244E-001
1.3299075E+000	2.226519068529100E-001
1.3332276E+000	2.248661611365987E-001
1.3365779E+000	2.268922302671528E-001
1.3399248E+000	2.289689521217411E-001
1.3432611E+000	2.317504595410224E-001
1.3466036E+000	2.341311769514016E-001
1.3499473E+000	2.368372388817395E-001
1.3532727E+000	2.398098589287176E-001
1.3566194E+000	2.436865255395849E-001
1.3599607E+000	2.472565669783950E-001
1.3633236E+000	2.657731998788595E-001
1.3666809E+000	2.640004194978878E-001
1.3699998E+000	2.640789715492429E-001
1.3733560E+000	2.697655594091974E-001
1.3766863E+000	2.769724011920554E-001
1.3800266E+000	2.851461957444803E-001
1.3833799E+000	2.962769461378807E-001
1.3867149E+000	3.086499912386329E-001
1.3900585E+000	3.231232360379908E-001
1.3934131E+000	3.414592954755786E-001
1.3967557E+000	3.625501145455949E-001
1.4000936E+000	3.883921689012197E-001
1.4034137E+000	4.425890510427548E-001
1.4067576E+000	4.656832005293907E-001
1.4100797E+000	5.096054650948969E-001
1.4134070E+000	5.692882001334350E-001
1.4167562E+000	6.533458305666358E-001
1.4200840E+000	7.244098782616474E-001
1.4234080E+000	8.456145299733251E-001
1.4267460E+000	9.576393160002823E-001
1.4301609E+000	1.106563657886269E+000
1.4334923E+000	1.285115313958439E+000
1.4368017E+000	1.484579289007268E+000
1.4401510E+000	1.721223627021274E+000
1.4434866E+000	1.985167872742156E+000
1.4468310E+000	2.290877795080426E+000
1.4501513E+000	2.634745787627487E+000
1.4535105E+000	3.021299455784018E+000
1.4568628E+000	3.465009769421606E+000
1.4601821E+000	3.945558947588992E+000
1.4635421E+000	4.475336177092885E+000
1.4668803E+000	5.078599149833877E+000
1.4702187E+000	5.717584932287537E+000
1.4735357E+000	6.416325463318692E+000
1.4768828E+000	7.169272730199793E+000
1.4802144E+000	7.993229048870802E+000
1.4835414E+000	8.864470277203196E+000
1.4868907E+000	9.808768953425954E+000
1.4902514E+000	1.083029640178355E+001
1.4936175E+000	1.193713632659046E+001
1.4969587E+000	1.306733581072507E+001
1.5003022E+000	1.427170786747212E+001
1.5036486E+000	1.553789727876391E+001
1.5069642E+000	1.686051297243210E+001
1.5103015E+000	1.826610347374071E+001
1.5136448E+000	1.974827987518336E+001
1.5169849E+000	2.130408054745538E+001
1.5203176E+000	2.293129502702328E+001
1.5236626E+000	2.463395758132748E+001
1.5270127E+000	2.640845444775749E+001
1.5303335E+000	2.826356971708265E+001
1.5336907E+000	3.010972558901983E+001
1.5370096E+000	3.209489875976817E+001
1.5403517E+000	3.411143582216124E+001
1.5436925E+000	3.620641327156272E+001
1.5470407E+000	3.841670954553152E+001
1.5503641E+000	4.077059269278038E+001
1.5537089E+000	4.316387066575294E+001
1.5570452E+000	4.566791825103502E+001
1.5603808E+000	4.828653411257210E+001
1.5637404E+000	5.096674778176890E+001
1.5670743E+000	5.375906681452329E+001
1.5704147E+000	5.669792288363283E+001
1.5737618E+000	5.972507774691127E+001
1.5770935E+000	6.286057747095560E+001
1.5804456E+000	6.613343117913735E+001
1.5837907E+000	6.953839221808414E+001
1.5871543E+000	7.317386037397409E+001
1.5905048E+000	7.680130030402970E+001
1.5938559E+000	8.072757588491288E+001
1.5971934E+000	8.456880917010025E+001
1.6005267E+000	8.852316077505020E+001
1.6038634E+000	9.255239704446876E+001
1.6072086E+000	9.692108395018954E+001
1.6105672E+000	1.014851353168306E+002
1.6138984E+000	1.062852065956645E+002
1.6172978E+000	1.116536856489734E+002
1.6206714E+000	1.171638068475600E+002
1.6239996E+000	1.224507703858499E+002
1.6273485E+000	1.280242898195559E+002
1.6306905E+000	1.336698584378678E+002
1.6340437E+000	1.396801182058655E+002
1.6373634E+000	1.456405090617404E+002
1.6407374E+000	1.519389396362699E+002
1.6440797E+000	1.582481892290352E+002
1.6474252E+000	1.654075749810891E+002
1.6507549E+000	1.724203794229929E+002
1.6541095E+000	1.791654517698501E+002
1.6574701E+000	1.841989626931634E+002
1.6607996E+000	1.883613451435084E+002
1.6641521E+000	1.924913159959759E+002
1.6674939E+000	1.982133585087581E+002
1.6706966E+000	2.029288625779876E+002
1.6735219E+000	2.076443114520198E+002
1.6765484E+000	2.125176589647135E+002
1.6797276E+000	2.170114536675583E+002
1.6829346E+000	2.216972837811936E+002
1.6861267E+000	2.261960480715197E+002
1.6892945E+000	2.303576603851643E+002
1.6924680E+000	2.357000850740751E+002
1.6953098E+000	2.404979957396981E+002
1.6981509E+000	2.442744246019124E+002
1.7013332E+000	2.489990794634768E+002
1.7045091E+000	2.538087321580451E+002
1.7071937E+000	2.580329659115009E+002
1.7104111E+000	2.944754284167675E+002
1.7136028E+000	3.254043323193919E+002
1.7166108E+000	3.289706335453375E+002
1.7197858E+000	3.305199986293983E+002
1.7229472E+000	3.304439165437225E+002
1.7258044E+000	3.311579344882225E+002
1.7283032E+000	3.326656459353492E+002
1.7309997E+000	3.344858638088826E+002
1.7334981E+000	3.374049060624753E+002
1.7363392E+000	3.392354506313904E+002
1.7393360E+000	3.414837178527487E+002
1.7425365E+000	3.515407493223511E+002
1.7449738E+000	4.054941675301559E+002
1.7478460E+000	4.206532655224114E+002
1.7508651E+000	4.192304806682196E+002
1.7536752E+000	4.136163719532187E+002
1.7565422E+000	4.461447749180979E+002
1.7594446E+000	4.553665063152357E+002
1.7624317E+000	4.479331845906154E+002
1.7652454E+000	4.418995950205738E+002
1.7677757E+000	4.396115662940852E+002
1.7702481E+000	4.383959374756660E+002
1.7732716E+000	4.782614497909249E+002
1.7763284E+000	5.027253616475118E+002
1.7791594E+000	4.963568649483659E+002
1.7819973E+000	5.135353139272411E+002
1.7850773E+000	5.286592463821680E+002
1.7878939E+000	5.161442898274513E+002
1.7905629E+000	5.063929753264412E+002
1.7932237E+000	4.992989523866775E+002
1.7955540E+000	4.973239063899568E+002
1.7982374E+000	5.582204996407982E+002
1.8008653E+000	5.673842370902712E+002
1.8025290E+000	5.620639617919919E+002