Ewe/V	<I>/mA	
1.3910915E+000	0.000000000000000E+000
1.3862590E+000	0.000000000000000E+000
1.2308390E+000	-1.931631240248680E+001
1.2327242E+000	-2.189109169576597E+000
1.2360600E+000	-5.332931287269413E-001
1.2394195E+000	-3.157794854757459E-001
1.2427416E+000	-2.069296491869221E-001
1.2460645E+000	-1.370458589265282E-001
1.2493844E+000	-8.622094419437132E-002
1.2527184E+000	-4.784955450740088E-002
1.2560576E+000	-1.698515032380107E-002
1.2593925E+000	8.119880387506995E-003
1.2627040E+000	2.785675114814318E-002
1.2660578E+000	4.533915094007868E-002
1.2693881E+000	5.984460701792060E-002
1.2727083E+000	7.205012644573960E-002
1.2760559E+000	8.220030500016817E-002
1.2793872E+000	9.179489755354187E-002
1.2827134E+000	9.885668274008230E-002
1.2860508E+000	1.062573710700880E-001
1.2893647E+000	1.119118670878956E-001
1.2927077E+000	1.173186135574773E-001
1.2960396E+000	1.221737326544639E-001
1.2993780E+000	1.262881870624226E-001
1.3027223E+000	1.302703382024122E-001
1.3060457E+000	1.330666042124675E-001
1.3093870E+000	1.364787863490040E-001
1.3127186E+000	1.391012281856439E-001
1.3160458E+000	1.417606143898376E-001
1.3193803E+000	1.444821785865604E-001
1.3227016E+000	1.474112241797807E-001
1.3260518E+000	1.501979926348720E-001
1.3293775E+000	1.520368040192033E-001
1.3327121E+000	1.546668432648923E-001
1.3360476E+000	1.575021041242941E-001
1.3393885E+000	1.599895406601499E-001
1.3427213E+000	1.632628792114157E-001
1.3460639E+000	1.660067238861132E-001
1.3493845E+000	1.687761851369108E-001
1.3527325E+000	1.728186570629189E-001
1.3560665E+000	1.757684038292709E-001
1.3593899E+000	1.798981590126949E-001
1.3627286E+000	1.854622507957664E-001
1.3660780E+000	1.900150123477951E-001
1.3694229E+000	1.946841020307845E-001
1.3727568E+000	2.019782716690708E-001
1.3760878E+000	2.092967004438266E-001
1.3794289E+000	2.175738523418340E-001
1.3827558E+000	2.283708256622190E-001
1.3860995E+000	2.404641149153122E-001
1.3894390E+000	2.549119652702792E-001
1.3927724E+000	2.741983655306388E-001
1.3960869E+000	2.972152477896524E-001
1.3994094E+000	3.253241087965391E-001
1.4027479E+000	3.617479758715794E-001
1.4060626E+000	4.051748264472961E-001
1.4094038E+000	4.620160734025207E-001
1.4127206E+000	5.297888393021903E-001
1.4160537E+000	6.135886292067871E-001
1.4193802E+000	7.163251769114201E-001
1.4227016E+000	8.389541335652133E-001
1.4260693E+000	9.893554888973988E-001
1.4294307E+000	1.164433635847224E+000
1.4327393E+000	1.365302542918618E+000
1.4360832E+000	1.598291126498321E+000
1.4394144E+000	1.864950388456030E+000
1.4427505E+000	2.165575976902239E+000
1.4460799E+000	2.504227139466886E+000
1.4494073E+000	2.879435626689322E+000
1.4527417E+000	3.292982147507107E+000
1.4560641E+000	3.743447628735922E+000
1.4594070E+000	4.229490935470352E+000
1.4627327E+000	4.753675834799694E+000
1.4660563E+000	5.310669466683553E+000
1.4694092E+000	5.902786575909332E+000
1.4727353E+000	6.525740054990422E+000
1.4760569E+000	7.179579050123834E+000
1.4793961E+000	7.864634300346438E+000
1.4827073E+000	8.576939607179222E+000
1.4860306E+000	9.314202995639135E+000
1.4893728E+000	1.008015526009644E+001
1.4927313E+000	1.088223877603727E+001
1.4961034E+000	1.171731382592149E+001
1.4994334E+000	1.255716131059386E+001
1.5027549E+000	1.341940500937073E+001
1.5060993E+000	1.430272857687160E+001
1.5094122E+000	1.520556594097224E+001
1.5127710E+000	1.612927199355855E+001
1.5161209E+000	1.707742076057201E+001
1.5194453E+000	1.803914435225533E+001
1.5227519E+000	1.902162910811161E+001
1.5260899E+000	2.002318454335995E+001
1.5294337E+000	2.104218673422605E+001
1.5327657E+000	2.207698465683754E+001
1.5360992E+000	2.312358043511455E+001
1.5394145E+000	2.418936486931119E+001
1.5427604E+000	2.527306019984124E+001
1.5460885E+000	2.636675036241479E+001
1.5494210E+000	2.747996643432117E+001
1.5527586E+000	2.860347980592562E+001
1.5560747E+000	2.974265007385145E+001
1.5594265E+000	3.088702561565300E+001
1.5627457E+000	3.204228746248100E+001
1.5661143E+000	3.321971112564198E+001
1.5694240E+000	3.440902358284413E+001
1.5727620E+000	3.560745956044394E+001
1.5760759E+000	3.681689812727915E+001
1.5794199E+000	3.803925711810623E+001
1.5827616E+000	3.927152957402927E+001
1.5861176E+000	4.051866266255990E+001
1.5894469E+000	4.177076397869138E+001
1.5927688E+000	4.303250229756850E+001
1.5960989E+000	4.430145896854560E+001
1.5994468E+000	4.558173667583208E+001
1.6027895E+000	4.687195435757371E+001
1.6061106E+000	4.817233357829303E+001
1.6094393E+000	4.948069155401652E+001
1.6127913E+000	5.079537908333504E+001
1.6160977E+000	5.211772007160664E+001
1.6194288E+000	5.344853823627238E+001
1.6227752E+000	5.479097602779052E+001
1.6261019E+000	5.613798113599498E+001
1.6294477E+000	5.749482933191246E+001
1.6327718E+000	5.885501635937294E+001
1.6361132E+000	6.022322979215028E+001
1.6394434E+000	6.159536354158555E+001
1.6427737E+000	6.297884377141396E+001
1.6461170E+000	6.437293872540613E+001
1.6494384E+000	6.577119230564108E+001
1.6527811E+000	6.716523813917183E+001
1.6561029E+000	6.857080718363750E+001
1.6594387E+000	6.998723818407734E+001
1.6627784E+000	7.142728512301437E+001
1.6661085E+000	7.284832659919141E+001
1.6694386E+000	7.427771785168210E+001
1.6727704E+000	7.572403113368659E+001
1.6761180E+000	7.716999540645156E+001
1.6794366E+000	7.862096599274787E+001
1.6827683E+000	8.009182202762349E+001
1.6861266E+000	8.159785425521932E+001
1.6894563E+000	8.307629910910737E+001
1.6927813E+000	8.452939638136476E+001
1.6961104E+000	8.598905951614078E+001
1.6994442E+000	8.746359417374947E+001
1.7027767E+000	8.893782123121770E+001
1.7061518E+000	9.044552400437306E+001
1.7095118E+000	9.194589877367753E+001
1.7128301E+000	9.347069495810524E+001
1.7161535E+000	9.502396482511199E+001
1.7194839E+000	9.652428174570264E+001
1.7228343E+000	9.803236128751018E+001
1.7261554E+000	9.955504540791429E+001
1.7294967E+000	1.010775530032152E+002
1.7328384E+000	1.026907566980235E+002
1.7361721E+000	1.042368232743514E+002
1.7395070E+000	1.057700173799549E+002
1.7428418E+000	1.072843928879248E+002
1.7461785E+000	1.088235737411546E+002
1.7495449E+000	1.105479391161023E+002
1.7528908E+000	1.121255062004611E+002
1.7562129E+000	1.137349481548998E+002
1.7595445E+000	1.152452846354306E+002
1.7629074E+000	1.168333363936769E+002
1.7662202E+000	1.184326704584907E+002
1.7695683E+000	1.200305190415256E+002
1.7729046E+000	1.215872339509960E+002
1.7762409E+000	1.231615376944962E+002
1.7795813E+000	1.247470898619320E+002
1.7829106E+000	1.263068253283491E+002
1.7862569E+000	1.278306636968532E+002
1.7895808E+000	1.294104342740757E+002
1.7929046E+000	1.310281260872457E+002
1.7962234E+000	1.326095470048153E+002
1.7995547E+000	1.342687081058205E+002
1.8028795E+000	1.358409904750838E+002
1.8062208E+000	1.374573521860086E+002
1.8095566E+000	1.390804901888001E+002
1.8129236E+000	1.406838621709239E+002
1.8162515E+000	1.423155458309261E+002
1.8195832E+000	1.439616452076907E+002
1.8229034E+000	1.455162542230639E+002
1.8262469E+000	1.470994085922814E+002
1.8295785E+000	1.486678971231581E+002
1.8329192E+000	1.504401510980974E+002
1.8362682E+000	1.521151862264669E+002
1.8395869E+000	1.537362512389862E+002
1.8429255E+000	1.552217752066731E+002
1.8461558E+000	1.568333714481928E+002
1.8493023E+000	1.582998671937795E+002
1.8507658E+000	1.590697336504536E+002