Ewe/V	<I>/mA	
1.3544034E+000	0.000000000000000E+000
1.3535094E+000	0.000000000000000E+000
1.2309077E+000	-1.344973611405922E+001
1.2327472E+000	-1.242907361351278E+000
1.2360822E+000	-1.275978669655096E-001
1.2393847E+000	-1.934358130855357E-002
1.2427094E+000	2.585939570619061E-002
1.2460504E+000	5.119840736558001E-002
1.2493843E+000	6.900937953295905E-002
1.2527226E+000	8.095097525661088E-002
1.2560542E+000	9.049041485630860E-002
1.2593980E+000	9.808300607682119E-002
1.2627289E+000	1.043545767111030E-001
1.2660644E+000	1.092330908956294E-001
1.2693776E+000	1.137327492157105E-001
1.2727168E+000	1.173038297337088E-001
1.2760481E+000	1.207846268229292E-001
1.2794027E+000	1.245327267996830E-001
1.2827308E+000	1.263720587116572E-001
1.2860608E+000	1.287859564498466E-001
1.2893822E+000	1.303053980719455E-001
1.2927270E+000	1.329845376007290E-001
1.2960635E+000	1.343574657664931E-001
1.2994081E+000	1.358754187959865E-001
1.3027283E+000	1.373500267456538E-001
1.3060541E+000	1.382314660438029E-001
1.3093786E+000	1.397462288492468E-001
1.3127204E+000	1.409510104570801E-001
1.3160621E+000	1.421078344765512E-001
1.3193979E+000	1.440431196621661E-001
1.3227185E+000	1.449308691642516E-001
1.3260525E+000	1.458340425250972E-001
1.3293879E+000	1.469833465026253E-001
1.3327309E+000	1.485894643622365E-001
1.3360621E+000	1.492331656544392E-001
1.3393866E+000	1.515472670072285E-001
1.3427302E+000	1.531429771725736E-001
1.3460616E+000	1.551141836386054E-001
1.3494053E+000	1.567500531332293E-001
1.3527297E+000	1.592652939367458E-001
1.3560561E+000	1.626752659241348E-001
1.3593845E+000	1.648776724079934E-001
1.3627363E+000	1.695807585349509E-001
1.3660963E+000	1.738184342226563E-001
1.3694099E+000	1.772856761015187E-001
1.3727573E+000	1.831381820541540E-001
1.3760893E+000	1.899221971241378E-001
1.3794272E+000	1.973977556026698E-001
1.3827648E+000	2.061968689124516E-001
1.3861005E+000	2.175384803083977E-001
1.3894252E+000	2.300652433024074E-001
1.3927692E+000	2.475850478426667E-001
1.3960836E+000	2.673867001989794E-001
1.3994240E+000	2.926860513397158E-001
1.4027438E+000	3.233164478172732E-001
1.4060677E+000	3.623898877068066E-001
1.4093902E+000	4.098945282582269E-001
1.4127350E+000	4.690338454010456E-001
1.4160637E+000	5.417427218729554E-001
1.4193860E+000	6.316459946241810E-001
1.4227275E+000	7.384614212260852E-001
1.4260315E+000	8.678667286545174E-001
1.4294231E+000	1.028288294621099E+000
1.4327689E+000	1.208859456811507E+000
1.4361048E+000	1.422791145842234E+000
1.4394286E+000	1.667892632277791E+000
1.4427512E+000	1.948740987109346E+000
1.4460717E+000	2.264778538668374E+000
1.4494104E+000	2.617814608853429E+000
1.4527521E+000	3.010111478341422E+000
1.4560667E+000	3.439692705591764E+000
1.4593924E+000	3.907788806074670E+000
1.4627438E+000	4.411715543821636E+000
1.4660628E+000	4.951398524870754E+000
1.4693838E+000	5.529949129508534E+000
1.4727182E+000	6.144574011765854E+000
1.4760548E+000	6.792523467763836E+000
1.4793972E+000	7.471059533623716E+000
1.4827151E+000	8.181564930862777E+000
1.4860435E+000	8.921330762155094E+000
1.4893779E+000	9.691122138881376E+000
1.4927051E+000	1.048736277783714E+001
1.4961166E+000	1.134287674283109E+001
1.4994320E+000	1.219181672010635E+001
1.5027592E+000	1.306507775502272E+001
1.5060911E+000	1.396262434463837E+001
1.5094315E+000	1.488257849516407E+001
1.5127662E+000	1.582235599807177E+001
1.5161096E+000	1.678739278184366E+001
1.5194485E+000	1.776914448384434E+001
1.5227736E+000	1.877356034219144E+001
1.5261201E+000	1.979338038193680E+001
1.5294436E+000	2.082938068069899E+001
1.5327733E+000	2.188314668347402E+001
1.5361191E+000	2.294870519417532E+001
1.5394529E+000	2.403681039275821E+001
1.5427747E+000	2.513935432424253E+001
1.5461122E+000	2.625121303961854E+001
1.5494502E+000	2.738300393936436E+001
1.5527687E+000	2.852916720024223E+001
1.5561044E+000	2.968626336487881E+001
1.5594311E+000	3.085847822440212E+001
1.5627630E+000	3.203776425767148E+001
1.5660803E+000	3.323167916801276E+001
1.5694356E+000	3.443886598263740E+001
1.5727415E+000	3.565233596771925E+001
1.5760810E+000	3.688213410658659E+001
1.5794110E+000	3.812205022434841E+001
1.5827596E+000	3.937564349584000E+001
1.5861199E+000	4.064056915961839E+001
1.5894381E+000	4.191250172252649E+001
1.5927633E+000	4.319093052005678E+001
1.5960883E+000	4.448156119913483E+001
1.5994242E+000	4.578365004660225E+001
1.6027658E+000	4.709407485788324E+001
1.6060976E+000	4.841134367736061E+001
1.6094258E+000	4.973309584071148E+001
1.6127582E+000	5.106565548516073E+001
1.6160856E+000	5.240817498231922E+001
1.6194422E+000	5.375701301085883E+001
1.6227776E+000	5.511771016631246E+001
1.6261083E+000	5.648422719977384E+001
1.6294376E+000	5.785921739475941E+001
1.6327698E+000	5.923782472898722E+001
1.6361017E+000	6.062482717821445E+001
1.6394428E+000	6.201503465638598E+001
1.6427706E+000	6.341594767821152E+001
1.6461202E+000	6.482330559972911E+001
1.6494480E+000	6.623147784548610E+001
1.6527860E+000	6.764490991469688E+001
1.6561158E+000	6.906907646566860E+001
1.6594522E+000	7.049784162615458E+001
1.6627870E+000	7.193622887738502E+001
1.6661130E+000	7.338859414214244E+001
1.6694682E+000	7.483448124505594E+001
1.6727831E+000	7.628621170683755E+001
1.6761380E+000	7.773106077344187E+001
1.6794668E+000	7.916397006993117E+001
1.6827905E+000	8.063523129261614E+001
1.6861498E+000	8.211343284203792E+001
1.6894832E+000	8.359309903700978E+001
1.6928036E+000	8.508237248637829E+001
1.6961247E+000	8.656769829313862E+001
1.6994629E+000	8.805424720999258E+001
1.7028131E+000	8.954404636696836E+001
1.7061704E+000	9.105379401800212E+001
1.7094988E+000	9.258089399335745E+001
1.7128317E+000	9.408774334551958E+001
1.7161660E+000	9.562219015054916E+001
1.7194937E+000	9.715360292183669E+001
1.7228240E+000	9.866075824385138E+001
1.7261772E+000	1.002228375970252E+002
1.7295020E+000	1.018072601253627E+002
1.7328453E+000	1.033274896189355E+002
1.7361784E+000	1.048649832998081E+002
1.7395294E+000	1.063932644818448E+002
1.7428446E+000	1.079295454945704E+002
1.7461791E+000	1.095120204708978E+002
1.7495610E+000	1.112715068509548E+002
1.7528936E+000	1.128540681158629E+002
1.7562366E+000	1.144192524524160E+002
1.7595713E+000	1.159500783913868E+002
1.7629020E+000	1.175189469286647E+002
1.7662358E+000	1.190836293891762E+002
1.7695715E+000	1.206747395662057E+002
1.7729088E+000	1.222834698573865E+002
1.7762386E+000	1.238588594828766E+002
1.7795782E+000	1.254122044271298E+002
1.7829086E+000	1.269431321413662E+002
1.7862302E+000	1.285065931394157E+002
1.7896616E+000	1.300593822185106E+002
1.7928851E+000	1.316297346891802E+002
1.7962377E+000	1.331866940724381E+002
1.7995578E+000	1.347533237175314E+002
1.8028721E+000	1.363510233671054E+002
1.8062140E+000	1.379943211505340E+002
1.8095679E+000	1.395559963967912E+002
1.8129134E+000	1.411908122133290E+002
1.8162438E+000	1.428106796456896E+002
1.8195723E+000	1.444374276910376E+002
1.8229203E+000	1.460491203223826E+002
1.8262482E+000	1.477326718088025E+002
1.8295791E+000	1.493723354385520E+002
1.8329279E+000	1.509280790770931E+002
1.8362626E+000	1.525468349341722E+002
1.8395926E+000	1.541731891446431E+002
1.8429196E+000	1.558064711110379E+002
1.8462414E+000	1.573676606229105E+002
1.8492597E+000	1.588293838732225E+002
1.8507429E+000	1.595854831818610E+002