May 9, 2026   12:56:10
Linear Sweep Voltammetry
File: e:\xdq\20260509\ce0.03\lsv-ir-4-1.348.txt
Data Source:  Experiment
Instrument Model:  CHI660E
Header: 
Note: 

Init E (V) = 1.42
Final E (V) = 1.8
Scan Rate (V/s) = 0.005
Sample Interval (V) = 0.001
Quiet Time (sec) = 2
Sensitivity (A/V) = 0.1
Comp R (ohm) = 1.3

Results:

Channel 1:

Potential/V, Current/A

1.420, 6.148e-4
1.421, 6.317e-4
1.422, 6.234e-4
1.423, 6.124e-4
1.424, 6.033e-4
1.425, 5.947e-4
1.426, 5.890e-4
1.427, 5.867e-4
1.428, 5.859e-4
1.429, 5.849e-4
1.430, 5.852e-4
1.431, 5.884e-4
1.432, 5.915e-4
1.433, 5.973e-4
1.434, 6.043e-4
1.435, 6.101e-4
1.436, 6.188e-4
1.437, 6.275e-4
1.438, 6.374e-4
1.439, 6.487e-4
1.440, 6.627e-4
1.441, 6.767e-4
1.442, 6.923e-4
1.443, 7.070e-4
1.444, 7.238e-4
1.445, 7.425e-4
1.446, 7.629e-4
1.447, 7.831e-4
1.448, 8.035e-4
1.449, 8.292e-4
1.450, 8.537e-4
1.451, 8.792e-4
1.452, 9.068e-4
1.453, 9.352e-4
1.454, 9.648e-4
1.455, 9.951e-4
1.456, 1.028e-3
1.457, 1.064e-3
1.458, 1.100e-3
1.459, 1.139e-3
1.460, 1.179e-3
1.461, 1.220e-3
1.462, 1.264e-3
1.463, 1.309e-3
1.464, 1.355e-3
1.465, 1.404e-3
1.466, 1.455e-3
1.467, 1.507e-3
1.468, 1.563e-3
1.469, 1.620e-3
1.470, 1.678e-3
1.471, 1.739e-3
1.472, 1.804e-3
1.473, 1.870e-3
1.474, 1.938e-3
1.475, 2.009e-3
1.476, 2.085e-3
1.477, 2.162e-3
1.478, 2.242e-3
1.479, 2.325e-3
1.480, 2.410e-3
1.481, 2.498e-3
1.482, 2.590e-3
1.483, 2.686e-3
1.484, 2.784e-3
1.485, 2.886e-3
1.486, 2.990e-3
1.487, 3.096e-3
1.488, 3.209e-3
1.489, 3.325e-3
1.490, 3.443e-3
1.491, 3.566e-3
1.492, 3.693e-3
1.493, 3.818e-3
1.494, 3.949e-3
1.495, 4.088e-3
1.496, 4.230e-3
1.497, 4.378e-3
1.498, 4.530e-3
1.499, 4.685e-3
1.500, 4.844e-3
1.501, 5.006e-3
1.502, 5.175e-3
1.503, 5.347e-3
1.504, 5.526e-3
1.505, 5.708e-3
1.506, 5.899e-3
1.507, 6.092e-3
1.508, 6.289e-3
1.509, 6.488e-3
1.510, 6.696e-3
1.511, 6.912e-3
1.512, 7.130e-3
1.513, 7.355e-3
1.514, 7.587e-3
1.515, 7.823e-3
1.516, 8.065e-3
1.517, 8.313e-3
1.518, 8.566e-3
1.519, 8.821e-3
1.520, 9.085e-3
1.521, 9.356e-3
1.522, 9.638e-3
1.523, 9.921e-3
1.524, 1.020e-2
1.525, 1.049e-2
1.526, 1.079e-2
1.527, 1.110e-2
1.528, 1.140e-2
1.529, 1.172e-2
1.530, 1.204e-2
1.531, 1.237e-2
1.532, 1.270e-2
1.533, 1.305e-2
1.534, 1.339e-2
1.535, 1.373e-2
1.536, 1.408e-2
1.537, 1.444e-2
1.538, 1.480e-2
1.539, 1.517e-2
1.540, 1.555e-2
1.541, 1.593e-2
1.542, 1.634e-2
1.543, 1.673e-2
1.544, 1.712e-2
1.545, 1.751e-2
1.546, 1.792e-2
1.547, 1.834e-2
1.548, 1.877e-2
1.549, 1.923e-2
1.550, 1.966e-2
1.551, 2.009e-2
1.552, 2.055e-2
1.553, 2.102e-2
1.554, 2.148e-2
1.555, 2.198e-2
1.556, 2.248e-2
1.557, 2.295e-2
1.558, 2.345e-2
1.559, 2.396e-2
1.560, 2.448e-2
1.561, 2.505e-2
1.562, 2.557e-2
1.563, 2.610e-2
1.564, 2.666e-2
1.565, 2.724e-2
1.566, 2.786e-2
1.567, 2.844e-2
1.568, 2.903e-2
1.569, 2.963e-2
1.570, 3.027e-2
1.571, 3.093e-2
1.572, 3.155e-2
1.573, 3.219e-2
1.574, 3.288e-2
1.575, 3.359e-2
1.576, 3.425e-2
1.577, 3.494e-2
1.578, 3.567e-2
1.579, 3.643e-2
1.580, 3.713e-2
1.581, 3.786e-2
1.582, 3.868e-2
1.583, 3.944e-2
1.584, 4.020e-2
1.585, 4.103e-2
1.586, 4.186e-2
1.587, 4.264e-2
1.588, 4.349e-2
1.589, 4.438e-2
1.590, 4.519e-2
1.591, 4.607e-2
1.592, 4.699e-2
1.593, 4.784e-2
1.594, 4.878e-2
1.595, 4.973e-2
1.596, 5.060e-2
1.597, 5.158e-2
1.598, 5.251e-2
1.599, 5.345e-2
1.600, 5.449e-2
1.601, 5.542e-2
1.602, 5.644e-2
1.603, 5.742e-2
1.604, 5.843e-2
1.605, 5.935e-2
1.606, 6.191e-2
1.607, 6.346e-2
1.608, 6.447e-2
1.609, 6.563e-2
1.610, 6.669e-2
1.611, 6.787e-2
1.612, 6.892e-2
1.613, 7.011e-2
1.614, 7.118e-2
1.615, 7.238e-2
1.616, 7.347e-2
1.617, 7.469e-2
1.618, 7.583e-2
1.619, 7.711e-2
1.620, 7.838e-2
1.621, 7.908e-2
1.622, 8.019e-2
1.623, 8.130e-2
1.624, 8.257e-2
1.625, 8.370e-2
1.626, 8.493e-2
1.627, 8.616e-2
1.628, 8.735e-2
1.629, 8.861e-2
1.630, 8.986e-2
1.631, 9.111e-2
1.632, 9.240e-2
1.633, 9.363e-2
1.634, 9.486e-2
1.635, 9.622e-2
1.636, 9.750e-2
1.637, 9.878e-2
1.638, 1.002e-1
1.639, 1.015e-1
1.640, 1.030e-1
1.641, 1.043e-1
1.642, 1.055e-1
1.643, 1.067e-1
1.644, 1.080e-1
1.645, 1.093e-1
1.646, 1.106e-1
1.647, 1.119e-1
1.648, 1.132e-1
1.649, 1.145e-1
1.650, 1.158e-1
1.651, 1.171e-1
1.652, 1.185e-1
1.653, 1.198e-1
1.654, 1.211e-1
1.655, 1.244e-1
1.656, 1.309e-1
1.657, 1.327e-1
1.658, 1.341e-1
1.659, 1.354e-1
1.660, 1.367e-1
1.661, 1.381e-1
1.662, 1.394e-1
1.663, 1.408e-1
1.664, 1.422e-1
1.665, 1.438e-1
1.666, 1.453e-1
1.667, 1.466e-1
1.668, 1.479e-1
1.669, 1.497e-1
1.670, 1.515e-1
1.671, 1.531e-1
1.672, 1.548e-1
1.673, 1.567e-1
1.674, 1.582e-1
1.675, 1.597e-1
1.676, 1.611e-1
1.677, 1.624e-1
1.678, 1.639e-1
1.679, 1.655e-1
1.680, 1.669e-1
1.681, 1.684e-1
1.682, 1.699e-1
1.683, 1.717e-1
1.684, 1.732e-1
1.685, 1.749e-1
1.686, 1.771e-1
1.687, 1.788e-1
1.688, 1.806e-1
1.689, 1.828e-1
1.690, 1.847e-1
1.691, 1.877e-1
1.692, 1.892e-1
1.693, 1.907e-1
1.694, 1.924e-1
1.695, 1.939e-1
1.696, 1.953e-1
1.697, 1.967e-1
1.698, 1.981e-1
1.699, 1.998e-1
1.700, 2.022e-1
1.701, 2.037e-1
1.702, 2.047e-1
1.703, 2.061e-1
1.704, 2.076e-1
1.705, 2.094e-1
1.706, 2.108e-1
1.707, 2.120e-1
1.708, 2.127e-1
1.709, 2.125e-1
1.710, 2.111e-1
1.711, 2.146e-1
1.712, 2.218e-1
1.713, 2.240e-1
1.714, 2.256e-1
1.715, 2.273e-1
1.716, 2.285e-1
1.717, 2.299e-1
1.718, 2.312e-1
1.719, 2.329e-1
1.720, 2.349e-1
1.721, 2.365e-1
1.722, 2.383e-1
1.723, 2.394e-1
1.724, 2.407e-1
1.725, 2.418e-1
1.726, 2.433e-1
1.727, 2.448e-1
1.728, 2.458e-1
1.729, 2.472e-1
1.730, 2.489e-1
1.731, 2.508e-1
1.732, 2.518e-1
1.733, 2.528e-1
1.734, 2.552e-1
1.735, 2.575e-1
1.736, 2.587e-1
1.737, 2.600e-1
1.738, 2.611e-1
1.739, 2.623e-1
1.740, 2.635e-1
1.741, 2.644e-1
1.742, 2.651e-1
1.743, 2.663e-1
1.744, 2.678e-1
1.745, 2.690e-1
1.746, 2.701e-1
1.747, 2.712e-1
1.748, 2.741e-1
1.749, 2.757e-1
1.750, 2.768e-1
1.751, 2.778e-1
1.752, 2.788e-1
1.753, 2.810e-1
1.754, 2.825e-1
1.755, 2.835e-1
1.756, 2.861e-1
1.757, 2.873e-1
1.758, 2.876e-1
1.759, 2.883e-1
1.760, 2.904e-1
1.761, 2.915e-1
1.762, 2.925e-1
1.763, 2.940e-1
1.764, 2.946e-1
1.765, 2.956e-1
1.766, 2.964e-1
1.767, 2.970e-1
1.768, 2.992e-1
1.769, 3.025e-1
1.770, 3.052e-1
1.771, 3.069e-1
1.772, 3.077e-1
1.773, 3.081e-1
1.774, 3.089e-1
1.775, 3.095e-1
1.776, 3.097e-1
1.777, 3.100e-1
1.778, 3.107e-1
1.779, 3.119e-1
1.780, 3.125e-1
1.781, 3.127e-1
1.782, 3.126e-1
1.783, 3.095e-1
1.784, 3.079e-1
1.785, 3.231e-1
1.786, 3.309e-1
1.787, 3.308e-1
1.788, 3.338e-1
1.789, 3.423e-1
1.790, 3.424e-1
1.791, 3.418e-1
1.792, 3.420e-1
1.793, 3.427e-1
1.794, 3.446e-1
1.795, 3.459e-1
1.796, 3.459e-1
1.797, 3.460e-1
1.798, 3.465e-1
1.799, 3.454e-1
