May 9, 2026   12:35:44
Linear Sweep Voltammetry
File: e:\xdq\20260509\ce0.03\lsv-1-ir-1.34.txt
Data Source:  Experiment
Instrument Model:  CHI660E
Header: 
Note: 

Init E (V) = 1.42
Final E (V) = 1.92
Scan Rate (V/s) = 0.005
Sample Interval (V) = 0.001
Quiet Time (sec) = 2
Sensitivity (A/V) = 0.1
Comp R (ohm) = 1.3

Results:

Channel 1:

Potential/V, Current/A

1.420, 1.248e-3
1.421, 1.213e-3
1.422, 1.164e-3
1.423, 1.120e-3
1.424, 1.082e-3
1.425, 1.050e-3
1.426, 1.024e-3
1.427, 1.002e-3
1.428, 9.859e-4
1.429, 9.710e-4
1.430, 9.604e-4
1.431, 9.518e-4
1.432, 9.443e-4
1.433, 9.424e-4
1.434, 9.436e-4
1.435, 9.453e-4
1.436, 9.487e-4
1.437, 9.540e-4
1.438, 9.611e-4
1.439, 9.702e-4
1.440, 9.822e-4
1.441, 9.945e-4
1.442, 1.009e-3
1.443, 1.026e-3
1.444, 1.045e-3
1.445, 1.063e-3
1.446, 1.087e-3
1.447, 1.113e-3
1.448, 1.138e-3
1.449, 1.166e-3
1.450, 1.195e-3
1.451, 1.226e-3
1.452, 1.260e-3
1.453, 1.296e-3
1.454, 1.335e-3
1.455, 1.375e-3
1.456, 1.416e-3
1.457, 1.459e-3
1.458, 1.505e-3
1.459, 1.555e-3
1.460, 1.606e-3
1.461, 1.657e-3
1.462, 1.711e-3
1.463, 1.769e-3
1.464, 1.829e-3
1.465, 1.894e-3
1.466, 1.962e-3
1.467, 2.031e-3
1.468, 2.103e-3
1.469, 2.179e-3
1.470, 2.258e-3
1.471, 2.338e-3
1.472, 2.423e-3
1.473, 2.510e-3
1.474, 2.601e-3
1.475, 2.695e-3
1.476, 2.792e-3
1.477, 2.891e-3
1.478, 2.996e-3
1.479, 3.102e-3
1.480, 3.213e-3
1.481, 3.329e-3
1.482, 3.448e-3
1.483, 3.571e-3
1.484, 3.699e-3
1.485, 3.827e-3
1.486, 3.960e-3
1.487, 4.097e-3
1.488, 4.241e-3
1.489, 4.387e-3
1.490, 4.536e-3
1.491, 4.693e-3
1.492, 4.858e-3
1.493, 5.022e-3
1.494, 5.194e-3
1.495, 5.370e-3
1.496, 5.548e-3
1.497, 5.734e-3
1.498, 5.926e-3
1.499, 6.122e-3
1.500, 6.322e-3
1.501, 6.529e-3
1.502, 6.739e-3
1.503, 6.954e-3
1.504, 7.177e-3
1.505, 7.407e-3
1.506, 7.641e-3
1.507, 7.882e-3
1.508, 8.128e-3
1.509, 8.379e-3
1.510, 8.638e-3
1.511, 8.898e-3
1.512, 9.164e-3
1.513, 9.426e-3
1.514, 9.701e-3
1.515, 9.986e-3
1.516, 1.028e-2
1.517, 1.057e-2
1.518, 1.088e-2
1.519, 1.118e-2
1.520, 1.149e-2
1.521, 1.181e-2
1.522, 1.213e-2
1.523, 1.245e-2
1.524, 1.280e-2
1.525, 1.314e-2
1.526, 1.348e-2
1.527, 1.381e-2
1.528, 1.417e-2
1.529, 1.455e-2
1.530, 1.492e-2
1.531, 1.531e-2
1.532, 1.569e-2
1.533, 1.608e-2
1.534, 1.648e-2
1.535, 1.689e-2
1.536, 1.730e-2
1.537, 1.770e-2
1.538, 1.812e-2
1.539, 1.857e-2
1.540, 1.901e-2
1.541, 1.945e-2
1.542, 1.989e-2
1.543, 2.035e-2
1.544, 2.081e-2
1.545, 2.126e-2
1.546, 2.173e-2
1.547, 2.223e-2
1.548, 2.268e-2
1.549, 2.314e-2
1.550, 2.367e-2
1.551, 2.419e-2
1.552, 2.472e-2
1.553, 2.525e-2
1.554, 2.579e-2
1.555, 2.639e-2
1.556, 2.698e-2
1.557, 2.758e-2
1.558, 2.816e-2
1.559, 2.875e-2
1.560, 2.934e-2
1.561, 2.990e-2
1.562, 3.054e-2
1.563, 3.121e-2
1.564, 3.184e-2
1.565, 3.249e-2
1.566, 3.313e-2
1.567, 3.375e-2
1.568, 3.448e-2
1.569, 3.520e-2
1.570, 3.589e-2
1.571, 3.653e-2
1.572, 3.729e-2
1.573, 3.806e-2
1.574, 3.881e-2
1.575, 3.949e-2
1.576, 4.029e-2
1.577, 4.108e-2
1.578, 4.186e-2
1.579, 4.269e-2
1.580, 4.351e-2
1.581, 4.426e-2
1.582, 4.509e-2
1.583, 4.602e-2
1.584, 4.687e-2
1.585, 4.763e-2
1.586, 4.857e-2
1.587, 4.951e-2
1.588, 5.040e-2
1.589, 5.117e-2
1.590, 5.221e-2
1.591, 5.314e-2
1.592, 5.396e-2
1.593, 5.496e-2
1.594, 5.597e-2
1.595, 5.686e-2
1.596, 5.779e-2
1.597, 5.882e-2
1.598, 5.988e-2
1.599, 6.086e-2
1.600, 6.186e-2
1.601, 6.294e-2
1.602, 6.410e-2
1.603, 6.516e-2
1.604, 6.619e-2
1.605, 6.724e-2
1.606, 6.830e-2
1.607, 6.937e-2
1.608, 7.044e-2
1.609, 7.155e-2
1.610, 7.267e-2
1.611, 7.377e-2
1.612, 7.487e-2
1.613, 7.597e-2
1.614, 7.714e-2
1.615, 7.837e-2
1.616, 7.954e-2
1.617, 8.065e-2
1.618, 8.183e-2
1.619, 8.301e-2
1.620, 8.417e-2
1.621, 8.532e-2
1.622, 8.655e-2
1.623, 8.773e-2
1.624, 8.891e-2
1.625, 9.009e-2
1.626, 9.141e-2
1.627, 9.289e-2
1.628, 9.409e-2
1.629, 9.530e-2
1.630, 9.653e-2
1.631, 9.770e-2
1.632, 9.889e-2
1.633, 1.002e-1
1.634, 1.016e-1
1.635, 1.029e-1
1.636, 1.042e-1
1.637, 1.055e-1
1.638, 1.069e-1
1.639, 1.082e-1
1.640, 1.094e-1
1.641, 1.106e-1
1.642, 1.118e-1
1.643, 1.133e-1
1.644, 1.148e-1
1.645, 1.161e-1
1.646, 1.174e-1
1.647, 1.187e-1
1.648, 1.201e-1
1.649, 1.214e-1
1.650, 1.226e-1
1.651, 1.240e-1
1.652, 1.253e-1
1.653, 1.266e-1
1.654, 1.280e-1
1.655, 1.292e-1
1.656, 1.306e-1
1.657, 1.321e-1
1.658, 1.332e-1
1.659, 1.346e-1
1.660, 1.359e-1
1.661, 1.372e-1
1.662, 1.385e-1
1.663, 1.398e-1
1.664, 1.413e-1
1.665, 1.429e-1
1.666, 1.442e-1
1.667, 1.455e-1
1.668, 1.469e-1
1.669, 1.484e-1
1.670, 1.502e-1
1.671, 1.527e-1
1.672, 1.548e-1
1.673, 1.560e-1
1.674, 1.573e-1
1.675, 1.585e-1
1.676, 1.596e-1
1.677, 1.607e-1
1.678, 1.619e-1
1.679, 1.635e-1
1.680, 1.652e-1
1.681, 1.662e-1
1.682, 1.675e-1
1.683, 1.688e-1
1.684, 1.702e-1
1.685, 1.714e-1
1.686, 1.728e-1
1.687, 1.740e-1
1.688, 1.752e-1
1.689, 1.768e-1
1.690, 1.778e-1
1.691, 1.791e-1
1.692, 1.810e-1
1.693, 1.822e-1
1.694, 1.837e-1
1.695, 1.848e-1
1.696, 1.865e-1
1.697, 1.878e-1
1.698, 1.893e-1
1.699, 1.911e-1
1.700, 1.926e-1
1.701, 1.937e-1
1.702, 1.948e-1
1.703, 1.966e-1
1.704, 1.980e-1
1.705, 2.002e-1
1.706, 2.016e-1
1.707, 2.028e-1
1.708, 2.039e-1
1.709, 2.049e-1
1.710, 2.060e-1
1.711, 2.071e-1
1.712, 2.083e-1
1.713, 2.097e-1
1.714, 2.116e-1
1.715, 2.128e-1
1.716, 2.140e-1
1.717, 2.149e-1
1.718, 2.158e-1
1.719, 2.177e-1
1.720, 2.195e-1
1.721, 2.203e-1
1.722, 2.215e-1
1.723, 2.225e-1
1.724, 2.234e-1
1.725, 2.249e-1
1.726, 2.262e-1
1.727, 2.272e-1
1.728, 2.281e-1
1.729, 2.288e-1
1.730, 2.297e-1
1.731, 2.309e-1
1.732, 2.332e-1
1.733, 2.346e-1
1.734, 2.356e-1
1.735, 2.367e-1
1.736, 2.379e-1
1.737, 2.399e-1
1.738, 2.416e-1
1.739, 2.424e-1
1.740, 2.431e-1
1.741, 2.441e-1
1.742, 2.454e-1
1.743, 2.478e-1
1.744, 2.492e-1
1.745, 2.500e-1
1.746, 2.505e-1
1.747, 2.507e-1
1.748, 2.515e-1
1.749, 2.519e-1
1.750, 2.527e-1
1.751, 2.531e-1
1.752, 2.535e-1
1.753, 2.540e-1
1.754, 2.546e-1
1.755, 2.550e-1
1.756, 2.593e-1
1.757, 2.748e-1
1.758, 2.769e-1
1.759, 2.762e-1
1.760, 2.884e-1
1.761, 2.922e-1
1.762, 2.929e-1
1.763, 2.932e-1
1.764, 2.943e-1
1.765, 2.945e-1
1.766, 2.945e-1
1.767, 2.946e-1
1.768, 2.950e-1
1.769, 2.971e-1
1.770, 2.974e-1
1.771, 2.972e-1
1.772, 2.973e-1
1.773, 2.971e-1
1.774, 2.981e-1
1.775, 2.984e-1
1.776, 2.981e-1
1.777, 2.981e-1
1.778, 2.978e-1
1.779, 2.978e-1
1.780, 2.978e-1
1.781, 2.985e-1
1.782, 2.989e-1
1.783, 2.947e-1
1.784, 2.968e-1
1.785, 2.973e-1
1.786, 2.978e-1
1.787, 2.991e-1
1.788, 3.046e-1
1.789, 3.247e-1
1.790, 3.290e-1
1.791, 3.316e-1
1.792, 3.336e-1
1.793, 3.337e-1
1.794, 3.330e-1
1.795, 3.323e-1
1.796, 3.335e-1
1.797, 3.364e-1
1.798, 3.377e-1
1.799, 3.384e-1
1.800, 3.389e-1
1.801, 3.386e-1
1.802, 3.379e-1
1.803, 3.395e-1
1.804, 3.401e-1
1.805, 3.401e-1
1.806, 3.397e-1
1.807, 3.391e-1
1.808, 3.390e-1
1.809, 3.387e-1
1.810, 3.408e-1
1.811, 3.424e-1
1.812, 3.435e-1
1.813, 3.440e-1
1.814, 3.442e-1
1.815, 3.444e-1
1.816, 3.441e-1
1.817, 3.455e-1
1.818, 3.467e-1
1.819, 3.467e-1
1.820, 3.490e-1
1.821, 3.570e-1
1.822, 3.584e-1
1.823, 3.581e-1
1.824, 3.578e-1
1.825, 3.590e-1
1.826, 3.590e-1
1.827, 3.585e-1
1.828, 3.593e-1
1.829, 3.603e-1
1.830, 3.600e-1
1.831, 3.590e-1
1.832, 3.583e-1
1.833, 3.580e-1
1.834, 3.577e-1
1.835, 3.581e-1
1.836, 3.581e-1
1.837, 3.584e-1
1.838, 3.581e-1
1.839, 3.570e-1
1.840, 3.568e-1
1.841, 3.571e-1
1.842, 3.612e-1
1.843, 3.805e-1
1.844, 3.836e-1
1.845, 3.837e-1
1.846, 3.836e-1
1.847, 3.834e-1
1.848, 3.833e-1
1.849, 3.831e-1
1.850, 3.829e-1
1.851, 3.828e-1
1.852, 3.827e-1
1.853, 3.825e-1
1.854, 3.824e-1
1.855, 3.822e-1
1.856, 3.821e-1
1.857, 3.820e-1
1.858, 3.818e-1
1.859, 3.817e-1
1.860, 3.816e-1
1.861, 3.815e-1
1.862, 3.813e-1
1.863, 3.812e-1
1.864, 3.775e-1
1.865, 3.726e-1
1.866, 3.740e-1
1.867, 3.798e-1
1.868, 3.802e-1
1.869, 3.802e-1
1.870, 3.798e-1
1.871, 3.797e-1
1.872, 3.798e-1
1.873, 3.795e-1
1.874, 3.792e-1
1.875, 3.793e-1
1.876, 3.792e-1
1.877, 3.787e-1
1.878, 3.787e-1
1.879, 3.786e-1
1.880, 3.782e-1
1.881, 3.782e-1
1.882, 3.783e-1
1.883, 3.780e-1
1.884, 3.778e-1
1.885, 3.778e-1
1.886, 3.774e-1
1.887, 3.774e-1
1.888, 3.773e-1
1.889, 3.769e-1
1.890, 3.770e-1
1.891, 3.768e-1
1.892, 3.765e-1
1.893, 3.766e-1
1.894, 3.762e-1
1.895, 3.761e-1
1.896, 3.762e-1
1.897, 3.758e-1
1.898, 3.757e-1
1.899, 3.757e-1
1.900, 3.753e-1
1.901, 3.753e-1
1.902, 3.753e-1
1.903, 3.749e-1
1.904, 3.749e-1
1.905, 3.751e-1
1.906, 3.748e-1
1.907, 3.746e-1
1.908, 3.746e-1
1.909, 3.741e-1
1.910, 3.740e-1
1.911, 3.740e-1
1.912, 3.743e-1
1.913, 3.739e-1
1.914, 3.735e-1
1.915, 3.736e-1
1.916, 3.733e-1
1.917, 3.731e-1
1.918, 3.732e-1
1.919, 3.728e-1
