May 9, 2026   12:53:01
Linear Sweep Voltammetry
File: e:\xdq\20260509\ce0.03\lsv-ir-3-1.33.txt
Data Source:  Experiment
Instrument Model:  CHI660E
Header: 
Note: 

Init E (V) = 1.42
Final E (V) = 1.8
Scan Rate (V/s) = 0.005
Sample Interval (V) = 0.001
Quiet Time (sec) = 2
Sensitivity (A/V) = 0.1
Comp R (ohm) = 1.3

Results:

Channel 1:

Potential/V, Current/A

1.420, 9.344e-4
1.421, 9.210e-4
1.422, 8.866e-4
1.423, 8.553e-4
1.424, 8.284e-4
1.425, 8.056e-4
1.426, 7.868e-4
1.427, 7.721e-4
1.428, 7.607e-4
1.429, 7.506e-4
1.430, 7.432e-4
1.431, 7.380e-4
1.432, 7.345e-4
1.433, 7.351e-4
1.434, 7.386e-4
1.435, 7.419e-4
1.436, 7.472e-4
1.437, 7.528e-4
1.438, 7.599e-4
1.439, 7.693e-4
1.440, 7.803e-4
1.441, 7.926e-4
1.442, 8.057e-4
1.443, 8.209e-4
1.444, 8.380e-4
1.445, 8.552e-4
1.446, 8.757e-4
1.447, 8.964e-4
1.448, 9.182e-4
1.449, 9.422e-4
1.450, 9.676e-4
1.451, 9.949e-4
1.452, 1.024e-3
1.453, 1.056e-3
1.454, 1.088e-3
1.455, 1.122e-3
1.456, 1.158e-3
1.457, 1.196e-3
1.458, 1.235e-3
1.459, 1.276e-3
1.460, 1.321e-3
1.461, 1.366e-3
1.462, 1.415e-3
1.463, 1.465e-3
1.464, 1.515e-3
1.465, 1.570e-3
1.466, 1.627e-3
1.467, 1.684e-3
1.468, 1.744e-3
1.469, 1.806e-3
1.470, 1.873e-3
1.471, 1.942e-3
1.472, 2.015e-3
1.473, 2.091e-3
1.474, 2.167e-3
1.475, 2.247e-3
1.476, 2.331e-3
1.477, 2.416e-3
1.478, 2.506e-3
1.479, 2.600e-3
1.480, 2.695e-3
1.481, 2.794e-3
1.482, 2.895e-3
1.483, 3.000e-3
1.484, 3.109e-3
1.485, 3.224e-3
1.486, 3.341e-3
1.487, 3.462e-3
1.488, 3.587e-3
1.489, 3.715e-3
1.490, 3.844e-3
1.491, 3.980e-3
1.492, 4.121e-3
1.493, 4.265e-3
1.494, 4.415e-3
1.495, 4.570e-3
1.496, 4.727e-3
1.497, 4.889e-3
1.498, 5.057e-3
1.499, 5.228e-3
1.500, 5.406e-3
1.501, 5.586e-3
1.502, 5.770e-3
1.503, 5.961e-3
1.504, 6.159e-3
1.505, 6.361e-3
1.506, 6.574e-3
1.507, 6.794e-3
1.508, 7.011e-3
1.509, 7.232e-3
1.510, 7.460e-3
1.511, 7.697e-3
1.512, 7.938e-3
1.513, 8.186e-3
1.514, 8.441e-3
1.515, 8.698e-3
1.516, 8.962e-3
1.517, 9.233e-3
1.518, 9.510e-3
1.519, 9.790e-3
1.520, 1.008e-2
1.521, 1.037e-2
1.522, 1.069e-2
1.523, 1.099e-2
1.524, 1.130e-2
1.525, 1.162e-2
1.526, 1.194e-2
1.527, 1.227e-2
1.528, 1.260e-2
1.529, 1.294e-2
1.530, 1.328e-2
1.531, 1.363e-2
1.532, 1.399e-2
1.533, 1.436e-2
1.534, 1.471e-2
1.535, 1.508e-2
1.536, 1.545e-2
1.537, 1.584e-2
1.538, 1.622e-2
1.539, 1.661e-2
1.540, 1.701e-2
1.541, 1.744e-2
1.542, 1.784e-2
1.543, 1.825e-2
1.544, 1.866e-2
1.545, 1.908e-2
1.546, 1.950e-2
1.547, 1.994e-2
1.548, 2.041e-2
1.549, 2.087e-2
1.550, 2.131e-2
1.551, 2.177e-2
1.552, 2.225e-2
1.553, 2.274e-2
1.554, 2.326e-2
1.555, 2.377e-2
1.556, 2.426e-2
1.557, 2.476e-2
1.558, 2.529e-2
1.559, 2.583e-2
1.560, 2.642e-2
1.561, 2.696e-2
1.562, 2.751e-2
1.563, 2.808e-2
1.564, 2.868e-2
1.565, 2.932e-2
1.566, 2.995e-2
1.567, 3.057e-2
1.568, 3.121e-2
1.569, 3.191e-2
1.570, 3.259e-2
1.571, 3.323e-2
1.572, 3.390e-2
1.573, 3.461e-2
1.574, 3.536e-2
1.575, 3.604e-2
1.576, 3.676e-2
1.577, 3.754e-2
1.578, 3.830e-2
1.579, 3.903e-2
1.580, 3.980e-2
1.581, 4.066e-2
1.582, 4.143e-2
1.583, 4.221e-2
1.584, 4.308e-2
1.585, 4.393e-2
1.586, 4.473e-2
1.587, 4.562e-2
1.588, 4.656e-2
1.589, 4.741e-2
1.590, 4.834e-2
1.591, 4.929e-2
1.592, 5.014e-2
1.593, 5.109e-2
1.594, 5.208e-2
1.595, 5.298e-2
1.596, 5.401e-2
1.597, 5.500e-2
1.598, 5.597e-2
1.599, 5.705e-2
1.600, 5.802e-2
1.601, 5.911e-2
1.602, 6.015e-2
1.603, 6.117e-2
1.604, 6.231e-2
1.605, 6.334e-2
1.606, 6.451e-2
1.607, 6.554e-2
1.608, 6.673e-2
1.609, 6.779e-2
1.610, 6.896e-2
1.611, 7.007e-2
1.612, 7.123e-2
1.613, 7.240e-2
1.614, 7.361e-2
1.615, 7.506e-2
1.616, 7.630e-2
1.617, 7.752e-2
1.618, 7.888e-2
1.619, 8.013e-2
1.620, 8.138e-2
1.621, 8.274e-2
1.622, 8.413e-2
1.623, 8.528e-2
1.624, 8.665e-2
1.625, 8.791e-2
1.626, 8.917e-2
1.627, 9.044e-2
1.628, 9.169e-2
1.629, 9.303e-2
1.630, 9.424e-2
1.631, 9.554e-2
1.632, 9.690e-2
1.633, 9.823e-2
1.634, 9.956e-2
1.635, 1.009e-1
1.636, 1.022e-1
1.637, 1.036e-1
1.638, 1.051e-1
1.639, 1.067e-1
1.640, 1.081e-1
1.641, 1.099e-1
1.642, 1.115e-1
1.643, 1.128e-1
1.644, 1.141e-1
1.645, 1.154e-1
1.646, 1.168e-1
1.647, 1.180e-1
1.648, 1.193e-1
1.649, 1.207e-1
1.650, 1.220e-1
1.651, 1.232e-1
1.652, 1.245e-1
1.653, 1.259e-1
1.654, 1.273e-1
1.655, 1.285e-1
1.656, 1.299e-1
1.657, 1.312e-1
1.658, 1.326e-1
1.659, 1.340e-1
1.660, 1.353e-1
1.661, 1.368e-1
1.662, 1.382e-1
1.663, 1.397e-1
1.664, 1.411e-1
1.665, 1.425e-1
1.666, 1.441e-1
1.667, 1.458e-1
1.668, 1.475e-1
1.669, 1.495e-1
1.670, 1.511e-1
1.671, 1.526e-1
1.672, 1.542e-1
1.673, 1.555e-1
1.674, 1.569e-1
1.675, 1.588e-1
1.676, 1.605e-1
1.677, 1.617e-1
1.678, 1.630e-1
1.679, 1.645e-1
1.680, 1.664e-1
1.681, 1.683e-1
1.682, 1.695e-1
1.683, 1.710e-1
1.684, 1.730e-1
1.685, 1.745e-1
1.686, 1.759e-1
1.687, 1.773e-1
1.688, 1.786e-1
1.689, 1.800e-1
1.690, 1.812e-1
1.691, 1.825e-1
1.692, 1.837e-1
1.693, 1.856e-1
1.694, 1.885e-1
1.695, 1.914e-1
1.696, 1.947e-1
1.697, 1.968e-1
1.698, 1.985e-1
1.699, 1.997e-1
1.700, 2.010e-1
1.701, 2.022e-1
1.702, 2.034e-1
1.703, 2.047e-1
1.704, 2.063e-1
1.705, 2.074e-1
1.706, 2.084e-1
1.707, 2.096e-1
1.708, 2.107e-1
1.709, 2.122e-1
1.710, 2.132e-1
1.711, 2.143e-1
1.712, 2.154e-1
1.713, 2.166e-1
1.714, 2.172e-1
1.715, 2.181e-1
1.716, 2.191e-1
1.717, 2.200e-1
1.718, 2.208e-1
1.719, 2.217e-1
1.720, 2.234e-1
1.721, 2.247e-1
1.722, 2.258e-1
1.723, 2.270e-1
1.724, 2.275e-1
1.725, 2.371e-1
1.726, 2.444e-1
1.727, 2.451e-1
1.728, 2.444e-1
1.729, 2.450e-1
1.730, 2.452e-1
1.731, 2.506e-1
1.732, 2.602e-1
1.733, 2.617e-1
1.734, 2.631e-1
1.735, 2.655e-1
1.736, 2.662e-1
1.737, 2.668e-1
1.738, 2.673e-1
1.739, 2.675e-1
1.740, 2.696e-1
1.741, 2.708e-1
1.742, 2.734e-1
1.743, 2.741e-1
1.744, 2.745e-1
1.745, 2.751e-1
1.746, 2.765e-1
1.747, 2.791e-1
1.748, 2.810e-1
1.749, 2.814e-1
1.750, 2.825e-1
1.751, 2.840e-1
1.752, 2.848e-1
1.753, 2.855e-1
1.754, 2.863e-1
1.755, 2.870e-1
1.756, 2.879e-1
1.757, 2.891e-1
1.758, 2.904e-1
1.759, 2.913e-1
1.760, 2.928e-1
1.761, 2.947e-1
1.762, 2.954e-1
1.763, 2.960e-1
1.764, 2.965e-1
1.765, 2.975e-1
1.766, 2.981e-1
1.767, 3.013e-1
1.768, 3.028e-1
1.769, 3.038e-1
1.770, 3.051e-1
1.771, 3.061e-1
1.772, 3.070e-1
1.773, 3.085e-1
1.774, 3.104e-1
1.775, 3.122e-1
1.776, 3.164e-1
1.777, 3.184e-1
1.778, 3.193e-1
1.779, 3.199e-1
1.780, 3.204e-1
1.781, 3.209e-1
1.782, 3.217e-1
1.783, 3.230e-1
1.784, 3.249e-1
1.785, 3.273e-1
1.786, 3.290e-1
1.787, 3.293e-1
1.788, 3.297e-1
1.789, 3.297e-1
1.790, 3.304e-1
1.791, 3.326e-1
1.792, 3.341e-1
1.793, 3.419e-1
1.794, 3.419e-1
1.795, 3.407e-1
1.796, 3.403e-1
1.797, 3.405e-1
1.798, 3.426e-1
1.799, 3.438e-1
