May 9, 2026   12:43:53
Linear Sweep Voltammetry
File: e:\xdq\20260509\ce0.03\lsv-ir-2-1.33.txt
Data Source:  Experiment
Instrument Model:  CHI660E
Header: 
Note: 

Init E (V) = 1.42
Final E (V) = 1.92
Scan Rate (V/s) = 0.005
Sample Interval (V) = 0.001
Quiet Time (sec) = 2
Sensitivity (A/V) = 0.1
Comp R (ohm) = 1.3

Results:

Channel 1:

Potential/V, Current/A

1.420, 1.206e-3
1.421, 1.176e-3
1.422, 1.130e-3
1.423, 1.086e-3
1.424, 1.050e-3
1.425, 1.019e-3
1.426, 9.931e-4
1.427, 9.721e-4
1.428, 9.555e-4
1.429, 9.397e-4
1.430, 9.289e-4
1.431, 9.220e-4
1.432, 9.155e-4
1.433, 9.130e-4
1.434, 9.127e-4
1.435, 9.132e-4
1.436, 9.156e-4
1.437, 9.188e-4
1.438, 9.266e-4
1.439, 9.367e-4
1.440, 9.482e-4
1.441, 9.612e-4
1.442, 9.744e-4
1.443, 9.902e-4
1.444, 1.007e-3
1.445, 1.027e-3
1.446, 1.049e-3
1.447, 1.073e-3
1.448, 1.098e-3
1.449, 1.124e-3
1.450, 1.152e-3
1.451, 1.183e-3
1.452, 1.215e-3
1.453, 1.248e-3
1.454, 1.284e-3
1.455, 1.322e-3
1.456, 1.363e-3
1.457, 1.404e-3
1.458, 1.448e-3
1.459, 1.495e-3
1.460, 1.546e-3
1.461, 1.596e-3
1.462, 1.650e-3
1.463, 1.705e-3
1.464, 1.761e-3
1.465, 1.822e-3
1.466, 1.886e-3
1.467, 1.952e-3
1.468, 2.021e-3
1.469, 2.093e-3
1.470, 2.170e-3
1.471, 2.247e-3
1.472, 2.328e-3
1.473, 2.412e-3
1.474, 2.500e-3
1.475, 2.589e-3
1.476, 2.683e-3
1.477, 2.779e-3
1.478, 2.880e-3
1.479, 2.984e-3
1.480, 3.089e-3
1.481, 3.200e-3
1.482, 3.315e-3
1.483, 3.433e-3
1.484, 3.556e-3
1.485, 3.685e-3
1.486, 3.811e-3
1.487, 3.940e-3
1.488, 4.078e-3
1.489, 4.222e-3
1.490, 4.364e-3
1.491, 4.516e-3
1.492, 4.671e-3
1.493, 4.829e-3
1.494, 4.995e-3
1.495, 5.165e-3
1.496, 5.334e-3
1.497, 5.512e-3
1.498, 5.696e-3
1.499, 5.886e-3
1.500, 6.079e-3
1.501, 6.278e-3
1.502, 6.487e-3
1.503, 6.699e-3
1.504, 6.918e-3
1.505, 7.142e-3
1.506, 7.369e-3
1.507, 7.606e-3
1.508, 7.849e-3
1.509, 8.095e-3
1.510, 8.350e-3
1.511, 8.607e-3
1.512, 8.867e-3
1.513, 9.135e-3
1.514, 9.411e-3
1.515, 9.694e-3
1.516, 9.982e-3
1.517, 1.028e-2
1.518, 1.058e-2
1.519, 1.088e-2
1.520, 1.119e-2
1.521, 1.151e-2
1.522, 1.184e-2
1.523, 1.217e-2
1.524, 1.251e-2
1.525, 1.285e-2
1.526, 1.320e-2
1.527, 1.355e-2
1.528, 1.391e-2
1.529, 1.428e-2
1.530, 1.465e-2
1.531, 1.502e-2
1.532, 1.541e-2
1.533, 1.580e-2
1.534, 1.619e-2
1.535, 1.659e-2
1.536, 1.701e-2
1.537, 1.742e-2
1.538, 1.784e-2
1.539, 1.827e-2
1.540, 1.870e-2
1.541, 1.914e-2
1.542, 1.957e-2
1.543, 2.003e-2
1.544, 2.049e-2
1.545, 2.095e-2
1.546, 2.142e-2
1.547, 2.215e-2
1.548, 2.298e-2
1.549, 2.350e-2
1.550, 2.404e-2
1.551, 2.454e-2
1.552, 2.503e-2
1.553, 2.557e-2
1.554, 2.614e-2
1.555, 2.672e-2
1.556, 2.731e-2
1.557, 2.791e-2
1.558, 2.852e-2
1.559, 2.912e-2
1.560, 2.974e-2
1.561, 3.038e-2
1.562, 3.103e-2
1.563, 3.169e-2
1.564, 3.236e-2
1.565, 3.304e-2
1.566, 3.373e-2
1.567, 3.444e-2
1.568, 3.517e-2
1.569, 3.591e-2
1.570, 3.665e-2
1.571, 3.741e-2
1.572, 3.818e-2
1.573, 3.896e-2
1.574, 3.976e-2
1.575, 4.056e-2
1.576, 4.139e-2
1.577, 4.223e-2
1.578, 4.309e-2
1.579, 4.395e-2
1.580, 4.481e-2
1.581, 4.569e-2
1.582, 4.658e-2
1.583, 4.750e-2
1.584, 4.844e-2
1.585, 4.938e-2
1.586, 5.032e-2
1.587, 5.126e-2
1.588, 5.223e-2
1.589, 5.321e-2
1.590, 5.423e-2
1.591, 5.523e-2
1.592, 5.623e-2
1.593, 5.725e-2
1.594, 5.828e-2
1.595, 5.936e-2
1.596, 6.044e-2
1.597, 6.149e-2
1.598, 6.257e-2
1.599, 6.365e-2
1.600, 6.484e-2
1.601, 6.605e-2
1.602, 6.718e-2
1.603, 6.830e-2
1.604, 6.943e-2
1.605, 7.062e-2
1.606, 7.179e-2
1.607, 7.298e-2
1.608, 7.421e-2
1.609, 7.546e-2
1.610, 7.669e-2
1.611, 7.792e-2
1.612, 7.911e-2
1.613, 8.032e-2
1.614, 8.163e-2
1.615, 8.289e-2
1.616, 8.418e-2
1.617, 8.544e-2
1.618, 8.673e-2
1.619, 8.805e-2
1.620, 8.939e-2
1.621, 9.074e-2
1.622, 9.212e-2
1.623, 9.348e-2
1.624, 9.475e-2
1.625, 9.612e-2
1.626, 9.747e-2
1.627, 9.887e-2
1.628, 1.006e-1
1.629, 1.019e-1
1.630, 1.032e-1
1.631, 1.046e-1
1.632, 1.059e-1
1.633, 1.072e-1
1.634, 1.086e-1
1.635, 1.102e-1
1.636, 1.117e-1
1.637, 1.131e-1
1.638, 1.144e-1
1.639, 1.158e-1
1.640, 1.173e-1
1.641, 1.188e-1
1.642, 1.201e-1
1.643, 1.217e-1
1.644, 1.231e-1
1.645, 1.244e-1
1.646, 1.260e-1
1.647, 1.273e-1
1.648, 1.288e-1
1.649, 1.303e-1
1.650, 1.317e-1
1.651, 1.334e-1
1.652, 1.350e-1
1.653, 1.366e-1
1.654, 1.382e-1
1.655, 1.398e-1
1.656, 1.413e-1
1.657, 1.427e-1
1.658, 1.447e-1
1.659, 1.466e-1
1.660, 1.484e-1
1.661, 1.499e-1
1.662, 1.512e-1
1.663, 1.524e-1
1.664, 1.535e-1
1.665, 1.545e-1
1.666, 1.555e-1
1.667, 1.568e-1
1.668, 1.581e-1
1.669, 1.604e-1
1.670, 1.658e-1
1.671, 1.678e-1
1.672, 1.693e-1
1.673, 1.705e-1
1.674, 1.725e-1
1.675, 1.751e-1
1.676, 1.760e-1
1.677, 1.767e-1
1.678, 1.794e-1
1.679, 1.808e-1
1.680, 1.794e-1
1.681, 1.793e-1
1.682, 1.815e-1
1.683, 1.892e-1
1.684, 1.909e-1
1.685, 1.943e-1
1.686, 1.965e-1
1.687, 1.968e-1
1.688, 1.998e-1
1.689, 2.011e-1
1.690, 2.010e-1
1.691, 2.039e-1
1.692, 2.057e-1
1.693, 2.058e-1
1.694, 2.087e-1
1.695, 2.104e-1
1.696, 2.105e-1
1.697, 2.137e-1
1.698, 2.153e-1
1.699, 2.153e-1
1.700, 2.179e-1
1.701, 2.184e-1
1.702, 2.190e-1
1.703, 2.219e-1
1.704, 2.225e-1
1.705, 2.235e-1
1.706, 2.260e-1
1.707, 2.260e-1
1.708, 2.283e-1
1.709, 2.309e-1
1.710, 2.310e-1
1.711, 2.339e-1
1.712, 2.351e-1
1.713, 2.359e-1
1.714, 2.396e-1
1.715, 2.399e-1
1.716, 2.418e-1
1.717, 2.441e-1
1.718, 2.460e-1
1.719, 2.497e-1
1.720, 2.496e-1
1.721, 2.510e-1
1.722, 2.533e-1
1.723, 2.532e-1
1.724, 2.564e-1
1.725, 2.556e-1
1.726, 2.573e-1
1.727, 2.586e-1
1.728, 2.586e-1
1.729, 2.619e-1
1.730, 2.608e-1
1.731, 2.633e-1
1.732, 2.644e-1
1.733, 2.647e-1
1.734, 2.683e-1
1.735, 2.680e-1
1.736, 2.707e-1
1.737, 2.714e-1
1.738, 2.732e-1
1.739, 2.766e-1
1.740, 2.803e-1
1.741, 2.835e-1
1.742, 2.820e-1
1.743, 2.779e-1
1.744, 2.766e-1
1.745, 2.793e-1
1.746, 2.788e-1
1.747, 2.800e-1
1.748, 2.812e-1
1.749, 2.845e-1
1.750, 2.851e-1
1.751, 2.846e-1
1.752, 2.845e-1
1.753, 2.862e-1
1.754, 2.873e-1
1.755, 2.873e-1
1.756, 2.895e-1
1.757, 2.896e-1
1.758, 2.913e-1
1.759, 2.913e-1
1.760, 2.931e-1
1.761, 2.926e-1
1.762, 2.943e-1
1.763, 2.944e-1
1.764, 2.942e-1
1.765, 3.125e-1
1.766, 3.222e-1
1.767, 3.235e-1
1.768, 3.254e-1
1.769, 3.246e-1
1.770, 3.244e-1
1.771, 3.254e-1
1.772, 3.263e-1
1.773, 3.277e-1
1.774, 3.293e-1
1.775, 3.296e-1
1.776, 3.312e-1
1.777, 3.317e-1
1.778, 3.311e-1
1.779, 3.313e-1
1.780, 3.308e-1
1.781, 3.313e-1
1.782, 3.325e-1
1.783, 3.331e-1
1.784, 3.361e-1
1.785, 3.586e-1
1.786, 3.657e-1
1.787, 3.658e-1
1.788, 3.666e-1
1.789, 3.672e-1
1.790, 3.675e-1
1.791, 3.690e-1
1.792, 3.701e-1
1.793, 3.701e-1
1.794, 3.753e-1
1.795, 3.782e-1
1.796, 3.777e-1
1.797, 3.771e-1
1.798, 3.782e-1
1.799, 3.759e-1
1.800, 3.788e-1
1.801, 3.817e-1
1.802, 3.822e-1
1.803, 3.809e-1
1.804, 3.824e-1
1.805, 3.846e-1
1.806, 3.845e-1
1.807, 3.847e-1
1.808, 3.849e-1
1.809, 3.849e-1
1.810, 3.835e-1
1.811, 3.844e-1
1.812, 3.846e-1
1.813, 3.834e-1
1.814, 3.841e-1
1.815, 3.838e-1
1.816, 3.837e-1
1.817, 3.833e-1
1.818, 3.833e-1
1.819, 3.833e-1
1.820, 3.834e-1
1.821, 3.832e-1
1.822, 3.820e-1
1.823, 3.826e-1
1.824, 3.829e-1
1.825, 3.825e-1
1.826, 3.819e-1
1.827, 3.827e-1
1.828, 3.826e-1
1.829, 3.825e-1
1.830, 3.823e-1
1.831, 3.822e-1
1.832, 3.821e-1
1.833, 3.819e-1
1.834, 3.817e-1
1.835, 3.815e-1
1.836, 3.813e-1
1.837, 3.812e-1
1.838, 3.811e-1
1.839, 3.810e-1
1.840, 3.809e-1
1.841, 3.808e-1
1.842, 3.806e-1
1.843, 3.805e-1
1.844, 3.801e-1
1.845, 3.792e-1
1.846, 3.790e-1
1.847, 3.789e-1
1.848, 3.788e-1
1.849, 3.786e-1
1.850, 3.785e-1
1.851, 3.783e-1
1.852, 3.782e-1
1.853, 3.781e-1
1.854, 3.780e-1
1.855, 3.778e-1
1.856, 3.777e-1
1.857, 3.775e-1
1.858, 3.773e-1
1.859, 3.772e-1
1.860, 3.770e-1
1.861, 3.769e-1
1.862, 3.768e-1
1.863, 3.766e-1
1.864, 3.763e-1
1.865, 3.762e-1
1.866, 3.761e-1
1.867, 3.759e-1
1.868, 3.757e-1
1.869, 3.756e-1
1.870, 3.748e-1
1.871, 3.745e-1
1.872, 3.744e-1
1.873, 3.743e-1
1.874, 3.741e-1
1.875, 3.739e-1
1.876, 3.738e-1
1.877, 3.737e-1
1.878, 3.735e-1
1.879, 3.734e-1
1.880, 3.733e-1
1.881, 3.732e-1
1.882, 3.731e-1
1.883, 3.730e-1
1.884, 3.729e-1
1.885, 3.729e-1
1.886, 3.727e-1
1.887, 3.726e-1
1.888, 3.725e-1
1.889, 3.723e-1
1.890, 3.722e-1
1.891, 3.721e-1
1.892, 3.719e-1
1.893, 3.718e-1
1.894, 3.717e-1
1.895, 3.716e-1
1.896, 3.714e-1
1.897, 3.713e-1
1.898, 3.712e-1
1.899, 3.710e-1
1.900, 3.701e-1
1.901, 3.699e-1
1.902, 3.697e-1
1.903, 3.697e-1
1.904, 3.695e-1
1.905, 3.693e-1
1.906, 3.692e-1
1.907, 3.690e-1
1.908, 3.689e-1
1.909, 3.688e-1
1.910, 3.686e-1
1.911, 3.684e-1
1.912, 3.683e-1
1.913, 3.682e-1
1.914, 3.682e-1
1.915, 3.682e-1
1.916, 3.681e-1
1.917, 3.673e-1
1.918, 3.671e-1
1.919, 3.670e-1
