May 9, 2026   12:46:40
Linear Sweep Voltammetry
File: e:\xdq\20260509\ce0.03\lsv-5.txt
Data Source:  Experiment
Instrument Model:  CHI660E
Header: 
Note: 

Init E (V) = 1.42
Final E (V) = 1.92
Scan Rate (V/s) = 0.005
Sample Interval (V) = 0.001
Quiet Time (sec) = 2
Sensitivity (A/V) = 0.1
Comp R (ohm) = 1.3

Results:

Channel 1:

Potential/V, Current/A

1.420, 1.005e-3
1.421, 9.938e-4
1.422, 9.626e-4
1.423, 9.318e-4
1.424, 9.060e-4
1.425, 8.836e-4
1.426, 8.654e-4
1.427, 8.509e-4
1.428, 8.383e-4
1.429, 8.293e-4
1.430, 8.235e-4
1.431, 8.197e-4
1.432, 8.167e-4
1.433, 8.171e-4
1.434, 8.191e-4
1.435, 8.225e-4
1.436, 8.282e-4
1.437, 8.354e-4
1.438, 8.443e-4
1.439, 8.546e-4
1.440, 8.667e-4
1.441, 8.796e-4
1.442, 8.947e-4
1.443, 9.117e-4
1.444, 9.301e-4
1.445, 9.490e-4
1.446, 9.718e-4
1.447, 9.953e-4
1.448, 1.019e-3
1.449, 1.046e-3
1.450, 1.075e-3
1.451, 1.106e-3
1.452, 1.138e-3
1.453, 1.173e-3
1.454, 1.209e-3
1.455, 1.246e-3
1.456, 1.286e-3
1.457, 1.329e-3
1.458, 1.372e-3
1.459, 1.420e-3
1.460, 1.468e-3
1.461, 1.517e-3
1.462, 1.570e-3
1.463, 1.625e-3
1.464, 1.681e-3
1.465, 1.741e-3
1.466, 1.804e-3
1.467, 1.870e-3
1.468, 1.940e-3
1.469, 2.010e-3
1.470, 2.084e-3
1.471, 2.163e-3
1.472, 2.245e-3
1.473, 2.329e-3
1.474, 2.413e-3
1.475, 2.502e-3
1.476, 2.596e-3
1.477, 2.694e-3
1.478, 2.794e-3
1.479, 2.898e-3
1.480, 3.006e-3
1.481, 3.116e-3
1.482, 3.231e-3
1.483, 3.352e-3
1.484, 3.476e-3
1.485, 3.606e-3
1.486, 3.736e-3
1.487, 3.867e-3
1.488, 4.005e-3
1.489, 4.151e-3
1.490, 4.300e-3
1.491, 4.453e-3
1.492, 4.614e-3
1.493, 4.776e-3
1.494, 4.941e-3
1.495, 5.114e-3
1.496, 5.291e-3
1.497, 5.475e-3
1.498, 5.661e-3
1.499, 5.854e-3
1.500, 6.052e-3
1.501, 6.256e-3
1.502, 6.466e-3
1.503, 6.681e-3
1.504, 6.904e-3
1.505, 7.130e-3
1.506, 7.361e-3
1.507, 7.604e-3
1.508, 7.851e-3
1.509, 8.101e-3
1.510, 8.358e-3
1.511, 8.622e-3
1.512, 8.888e-3
1.513, 9.163e-3
1.514, 9.443e-3
1.515, 9.731e-3
1.516, 1.002e-2
1.517, 1.033e-2
1.518, 1.064e-2
1.519, 1.095e-2
1.520, 1.127e-2
1.521, 1.161e-2
1.522, 1.197e-2
1.523, 1.231e-2
1.524, 1.266e-2
1.525, 1.301e-2
1.526, 1.336e-2
1.527, 1.372e-2
1.528, 1.409e-2
1.529, 1.446e-2
1.530, 1.485e-2
1.531, 1.524e-2
1.532, 1.563e-2
1.533, 1.603e-2
1.534, 1.644e-2
1.535, 1.684e-2
1.536, 1.725e-2
1.537, 1.767e-2
1.538, 1.811e-2
1.539, 1.855e-2
1.540, 1.899e-2
1.541, 1.941e-2
1.542, 1.985e-2
1.543, 2.032e-2
1.544, 2.076e-2
1.545, 2.119e-2
1.546, 2.165e-2
1.547, 2.213e-2
1.548, 2.260e-2
1.549, 2.307e-2
1.550, 2.355e-2
1.551, 2.404e-2
1.552, 2.457e-2
1.553, 2.512e-2
1.554, 2.569e-2
1.555, 2.623e-2
1.556, 2.677e-2
1.557, 2.733e-2
1.558, 2.791e-2
1.559, 2.849e-2
1.560, 2.913e-2
1.561, 2.976e-2
1.562, 3.035e-2
1.563, 3.096e-2
1.564, 3.161e-2
1.565, 3.225e-2
1.566, 3.288e-2
1.567, 3.352e-2
1.568, 3.420e-2
1.569, 3.503e-2
1.570, 3.577e-2
1.571, 3.648e-2
1.572, 3.722e-2
1.573, 3.799e-2
1.574, 3.873e-2
1.575, 3.950e-2
1.576, 4.024e-2
1.577, 4.104e-2
1.578, 4.183e-2
1.579, 4.260e-2
1.580, 4.341e-2
1.581, 4.434e-2
1.582, 4.529e-2
1.583, 4.613e-2
1.584, 4.707e-2
1.585, 4.797e-2
1.586, 4.884e-2
1.587, 4.970e-2
1.588, 5.065e-2
1.589, 5.151e-2
1.590, 5.243e-2
1.591, 5.356e-2
1.592, 5.474e-2
1.593, 5.575e-2
1.594, 5.681e-2
1.595, 5.783e-2
1.596, 5.875e-2
1.597, 5.983e-2
1.598, 6.076e-2
1.599, 6.179e-2
1.600, 6.309e-2
1.601, 6.420e-2
1.602, 6.541e-2
1.603, 6.654e-2
1.604, 6.755e-2
1.605, 6.862e-2
1.606, 6.956e-2
1.607, 7.080e-2
1.608, 7.214e-2
1.609, 7.346e-2
1.610, 7.481e-2
1.611, 7.596e-2
1.612, 7.705e-2
1.613, 7.813e-2
1.614, 7.962e-2
1.615, 8.096e-2
1.616, 8.226e-2
1.617, 8.349e-2
1.618, 8.470e-2
1.619, 8.573e-2
1.620, 8.713e-2
1.621, 8.875e-2
1.622, 9.009e-2
1.623, 9.135e-2
1.624, 9.248e-2
1.625, 9.326e-2
1.626, 9.450e-2
1.627, 9.593e-2
1.628, 9.779e-2
1.629, 9.918e-2
1.630, 1.008e-1
1.631, 1.021e-1
1.632, 1.033e-1
1.633, 1.046e-1
1.634, 1.063e-1
1.635, 1.076e-1
1.636, 1.088e-1
1.637, 1.102e-1
1.638, 1.119e-1
1.639, 1.134e-1
1.640, 1.146e-1
1.641, 1.160e-1
1.642, 1.179e-1
1.643, 1.193e-1
1.644, 1.206e-1
1.645, 1.220e-1
1.646, 1.235e-1
1.647, 1.249e-1
1.648, 1.263e-1
1.649, 1.278e-1
1.650, 1.294e-1
1.651, 1.307e-1
1.652, 1.322e-1
1.653, 1.339e-1
1.654, 1.357e-1
1.655, 1.373e-1
1.656, 1.389e-1
1.657, 1.405e-1
1.658, 1.423e-1
1.659, 1.440e-1
1.660, 1.455e-1
1.661, 1.466e-1
1.662, 1.483e-1
1.663, 1.499e-1
1.664, 1.514e-1
1.665, 1.526e-1
1.666, 1.541e-1
1.667, 1.558e-1
1.668, 1.573e-1
1.669, 1.587e-1
1.670, 1.603e-1
1.671, 1.615e-1
1.672, 1.631e-1
1.673, 1.644e-1
1.674, 1.661e-1
1.675, 1.675e-1
1.676, 1.689e-1
1.677, 1.707e-1
1.678, 1.720e-1
1.679, 1.736e-1
1.680, 1.753e-1
1.681, 1.769e-1
1.682, 1.786e-1
1.683, 1.806e-1
1.684, 1.824e-1
1.685, 1.838e-1
1.686, 1.849e-1
1.687, 1.869e-1
1.688, 1.887e-1
1.689, 1.901e-1
1.690, 1.917e-1
1.691, 1.931e-1
1.692, 1.942e-1
1.693, 1.954e-1
1.694, 1.967e-1
1.695, 1.980e-1
1.696, 1.993e-1
1.697, 2.009e-1
1.698, 2.023e-1
1.699, 2.036e-1
1.700, 2.053e-1
1.701, 2.067e-1
1.702, 2.078e-1
1.703, 2.101e-1
1.704, 2.117e-1
1.705, 2.132e-1
1.706, 2.148e-1
1.707, 2.160e-1
1.708, 2.184e-1
1.709, 2.194e-1
1.710, 2.213e-1
1.711, 2.219e-1
1.712, 2.247e-1
1.713, 2.257e-1
1.714, 2.272e-1
1.715, 2.292e-1
1.716, 2.306e-1
1.717, 2.324e-1
1.718, 2.331e-1
1.719, 2.331e-1
1.720, 2.343e-1
1.721, 2.573e-1
1.722, 2.675e-1
1.723, 2.682e-1
1.724, 2.686e-1
1.725, 2.695e-1
1.726, 2.707e-1
1.727, 2.713e-1
1.728, 2.727e-1
1.729, 2.753e-1
1.730, 2.807e-1
1.731, 2.818e-1
1.732, 2.822e-1
1.733, 2.826e-1
1.734, 2.836e-1
1.735, 2.845e-1
1.736, 2.853e-1
1.737, 2.861e-1
1.738, 2.881e-1
1.739, 2.892e-1
1.740, 2.906e-1
1.741, 2.918e-1
1.742, 2.925e-1
1.743, 2.935e-1
1.744, 2.938e-1
1.745, 2.947e-1
1.746, 2.953e-1
1.747, 2.963e-1
1.748, 2.973e-1
1.749, 2.982e-1
1.750, 2.992e-1
1.751, 2.999e-1
1.752, 3.012e-1
1.753, 3.027e-1
1.754, 3.048e-1
1.755, 3.059e-1
1.756, 3.077e-1
1.757, 3.091e-1
1.758, 3.097e-1
1.759, 3.107e-1
1.760, 3.112e-1
1.761, 3.118e-1
1.762, 3.144e-1
1.763, 3.161e-1
1.764, 3.183e-1
1.765, 3.230e-1
1.766, 3.251e-1
1.767, 3.262e-1
1.768, 3.265e-1
1.769, 3.270e-1
1.770, 3.292e-1
1.771, 3.307e-1
1.772, 3.328e-1
1.773, 3.332e-1
1.774, 3.341e-1
1.775, 3.363e-1
1.776, 3.379e-1
1.777, 3.388e-1
1.778, 3.388e-1
1.779, 3.388e-1
1.780, 3.392e-1
1.781, 3.399e-1
1.782, 3.399e-1
1.783, 3.405e-1
1.784, 3.430e-1
1.785, 3.461e-1
1.786, 3.513e-1
1.787, 3.532e-1
1.788, 3.530e-1
1.789, 3.526e-1
1.790, 3.531e-1
1.791, 3.530e-1
1.792, 3.539e-1
1.793, 3.547e-1
1.794, 3.558e-1
1.795, 3.558e-1
1.796, 3.556e-1
1.797, 3.561e-1
1.798, 3.568e-1
1.799, 3.585e-1
1.800, 3.607e-1
1.801, 3.610e-1
1.802, 3.614e-1
1.803, 3.635e-1
1.804, 3.645e-1
1.805, 3.647e-1
1.806, 3.638e-1
1.807, 3.638e-1
1.808, 3.636e-1
1.809, 3.633e-1
1.810, 3.662e-1
1.811, 3.777e-1
1.812, 3.787e-1
1.813, 3.785e-1
1.814, 3.784e-1
1.815, 3.782e-1
1.816, 3.781e-1
1.817, 3.780e-1
1.818, 3.778e-1
1.819, 3.777e-1
1.820, 3.775e-1
1.821, 3.774e-1
1.822, 3.772e-1
1.823, 3.771e-1
1.824, 3.769e-1
1.825, 3.767e-1
1.826, 3.766e-1
1.827, 3.765e-1
1.828, 3.764e-1
1.829, 3.763e-1
1.830, 3.761e-1
1.831, 3.760e-1
1.832, 3.759e-1
1.833, 3.758e-1
1.834, 3.756e-1
1.835, 3.755e-1
1.836, 3.753e-1
1.837, 3.752e-1
1.838, 3.751e-1
1.839, 3.746e-1
1.840, 3.739e-1
1.841, 3.736e-1
1.842, 3.733e-1
1.843, 3.732e-1
1.844, 3.731e-1
1.845, 3.729e-1
1.846, 3.728e-1
1.847, 3.727e-1
1.848, 3.726e-1
1.849, 3.724e-1
1.850, 3.723e-1
1.851, 3.722e-1
1.852, 3.720e-1
1.853, 3.719e-1
1.854, 3.717e-1
1.855, 3.716e-1
1.856, 3.714e-1
1.857, 3.712e-1
1.858, 3.711e-1
1.859, 3.709e-1
1.860, 3.708e-1
1.861, 3.707e-1
1.862, 3.705e-1
1.863, 3.704e-1
1.864, 3.703e-1
1.865, 3.702e-1
1.866, 3.701e-1
1.867, 3.700e-1
1.868, 3.698e-1
1.869, 3.695e-1
1.870, 3.693e-1
1.871, 3.692e-1
1.872, 3.690e-1
1.873, 3.689e-1
1.874, 3.688e-1
1.875, 3.687e-1
1.876, 3.685e-1
1.877, 3.684e-1
1.878, 3.683e-1
1.879, 3.681e-1
1.880, 3.680e-1
1.881, 3.678e-1
1.882, 3.676e-1
1.883, 3.674e-1
1.884, 3.673e-1
1.885, 3.671e-1
1.886, 3.671e-1
1.887, 3.669e-1
1.888, 3.668e-1
1.889, 3.667e-1
1.890, 3.667e-1
1.891, 3.666e-1
1.892, 3.665e-1
1.893, 3.664e-1
1.894, 3.663e-1
1.895, 3.662e-1
1.896, 3.662e-1
1.897, 3.661e-1
1.898, 3.659e-1
1.899, 3.658e-1
1.900, 3.657e-1
1.901, 3.649e-1
1.902, 3.647e-1
1.903, 3.647e-1
1.904, 3.646e-1
1.905, 3.645e-1
1.906, 3.636e-1
1.907, 3.633e-1
1.908, 3.632e-1
1.909, 3.630e-1
1.910, 3.629e-1
1.911, 3.628e-1
1.912, 3.627e-1
1.913, 3.626e-1
1.914, 3.624e-1
1.915, 3.623e-1
1.916, 3.623e-1
1.917, 3.623e-1
1.918, 3.618e-1
1.919, 3.616e-1
