Ewe/V	<I>/mA	
8.1206715E-001	-7.934397220611572E+000
8.1281024E-001	-2.872109133750193E+000
8.1398320E-001	-5.533805627513795E-001
8.1511664E-001	-1.717575064523971E-001
8.1628215E-001	-3.337631859775925E-002
8.1727624E-001	2.450916892471638E-002
8.1827468E-001	5.873943320303043E-002
8.1926668E-001	8.414573303165385E-002
8.2025689E-001	1.019279629647454E-001
8.2126665E-001	1.168591308028059E-001
8.2227963E-001	1.276378477923570E-001
8.2327771E-001	1.366836876022043E-001
8.2427859E-001	1.443641325976289E-001
8.2527840E-001	1.493735743203648E-001
8.2626510E-001	1.557235393535208E-001
8.2726282E-001	1.605856400779786E-001
8.2828820E-001	1.639000186351718E-001
8.2925260E-001	1.674328870657418E-001
8.3026654E-001	1.715111284240808E-001
8.3129430E-001	1.738029328968245E-001
8.3226472E-001	1.768472325401731E-001
8.3328295E-001	1.793954174931134E-001
8.3426452E-001	1.804964811610130E-001
8.3525550E-001	1.831857987654675E-001
8.3628750E-001	1.857215021743552E-001
8.3724958E-001	1.863912621823449E-001
8.3826858E-001	1.876661686951087E-001
8.3926487E-001	1.889900532378637E-001
8.4026861E-001	1.896414372690578E-001
8.4126186E-001	1.915934878677410E-001
8.4227240E-001	1.919964962224989E-001
8.4327102E-001	1.930951595961770E-001
8.4424728E-001	1.943404763047010E-001
8.4526426E-001	1.952457663568641E-001
8.4627742E-001	1.961101903752598E-001
8.4724492E-001	1.955803410770995E-001
8.4825218E-001	1.978952709447452E-001
8.4925115E-001	1.987496088431380E-001
8.5025144E-001	1.986340156376913E-001
8.5127324E-001	1.995825266327582E-001
8.5225362E-001	2.003768784578130E-001
8.5322613E-001	2.000559424912493E-001
8.5421664E-001	2.007355185363582E-001
8.5524487E-001	2.010549793226857E-001
8.5623920E-001	2.028820129387365E-001
8.5726231E-001	2.021708626093134E-001
8.5824406E-001	2.023648533418227E-001
8.5923386E-001	2.031065727135655E-001
8.6021721E-001	2.035999299966705E-001
8.6123425E-001	2.046804939293199E-001
8.6228734E-001	2.047891860344895E-001
8.6327380E-001	2.052645026188760E-001
8.6424714E-001	2.043695989306320E-001
8.6528587E-001	2.051803693175307E-001
8.6625773E-001	2.050877425267732E-001
8.6727804E-001	2.054606502254808E-001
8.6824375E-001	2.048333787393797E-001
8.6926019E-001	2.053921446890188E-001
8.7023509E-001	2.058948907587264E-001
8.7125421E-001	2.065106551680289E-001
8.7224388E-001	2.057916309891468E-001
8.7323844E-001	2.061803139470237E-001
8.7424999E-001	2.065335470079264E-001
8.7525356E-001	2.069186506172027E-001
8.7624300E-001	2.071565814592218E-001
8.7720561E-001	2.069775384206678E-001
8.7825739E-001	2.078529401095928E-001
8.7925684E-001	2.075022731528249E-001
8.8025218E-001	2.075332935071654E-001
8.8124651E-001	2.073343198194544E-001
8.8221633E-001	2.078024205510260E-001
8.8325179E-001	2.079253263633567E-001
8.8423407E-001	2.085254229260267E-001
8.8526744E-001	2.087541609518651E-001
8.8623273E-001	2.080895109102139E-001
8.8721442E-001	2.089662829551984E-001
8.8821262E-001	2.087579263305219E-001
8.8923109E-001	2.086100970153453E-001
8.9022535E-001	2.087179412030514E-001
8.9124978E-001	2.093820004827445E-001
8.9219081E-001	2.098163601562932E-001
8.9322454E-001	2.089605415874818E-001
8.9424938E-001	2.107652724479082E-001
8.9521462E-001	2.099916715243912E-001
8.9622241E-001	2.104866184915100E-001
8.9722961E-001	2.104378403336913E-001
8.9826429E-001	2.105464745933801E-001
8.9923310E-001	2.104242542689603E-001
9.0024704E-001	2.107030529252905E-001
9.0121680E-001	2.109442776482968E-001
9.0222788E-001	2.114965041449370E-001
9.0324175E-001	2.107624450215582E-001
9.0423334E-001	2.114814306712818E-001
9.0523803E-001	2.114244736731052E-001
9.0623087E-001	2.118579510047471E-001
9.0723634E-001	2.125534023399709E-001
9.0825164E-001	2.122028256180117E-001
9.0922177E-001	2.126568925601466E-001
9.0985918E-001	2.120745984526962E-001
9.1006374E-001	2.117005214095116E-001
9.0954071E-001	-1.817835332322268E-002
9.0855980E-001	-1.270002439031725E-001
9.0756428E-001	-1.502587366849191E-001
9.0655106E-001	-1.599032036028802E-001
9.0554243E-001	-1.664991673185590E-001
9.0455776E-001	-1.705600909578299E-001
9.0354341E-001	-1.736155650578439E-001
9.0255231E-001	-1.766621520811764E-001
9.0154427E-001	-1.787998215345424E-001
9.0055466E-001	-1.806131638931450E-001
8.9954120E-001	-1.823286811165787E-001
8.9854938E-001	-1.843976776150100E-001
8.9754653E-001	-1.855656127962799E-001
8.9655000E-001	-1.874293241891323E-001
8.9553809E-001	-1.887088478197931E-001
8.9453715E-001	-1.903631337400933E-001
8.9352751E-001	-1.911831150409009E-001
8.9253736E-001	-1.919160868834564E-001
8.9154434E-001	-1.923342439932405E-001
8.9053196E-001	-1.938839766748810E-001
8.8956612E-001	-1.944010533323441E-001
8.8853604E-001	-1.955706785364011E-001
8.8755488E-001	-1.966912980984770E-001
8.8653767E-001	-1.973413632906689E-001
8.8558054E-001	-1.978707721833315E-001
8.8457268E-001	-1.991945256099661E-001
8.8354278E-001	-1.989188889662423E-001
8.8256609E-001	-1.997536388743255E-001
8.8155437E-001	-2.014161416294948E-001
8.8054591E-001	-2.010465394360594E-001
8.7957120E-001	-2.024159066172118E-001
8.7858081E-001	-2.028787639681937E-001
8.7753624E-001	-2.023901129989474E-001
8.7654841E-001	-2.041915272603982E-001
8.7557960E-001	-2.041150895119810E-001
8.7457043E-001	-2.055917293592184E-001
8.7356770E-001	-2.059829821810123E-001
8.7255955E-001	-2.059630543269506E-001
8.7152481E-001	-2.084023809681335E-001
8.7053514E-001	-2.074055873478455E-001
8.6955446E-001	-2.076553398812259E-001
8.6854285E-001	-2.087220978984131E-001
8.6755490E-001	-2.080376670109461E-001
8.6652762E-001	-2.093395090627457E-001
8.6556077E-001	-2.097558780676789E-001
8.6454701E-001	-2.110052292269684E-001
8.6356562E-001	-2.117036936666685E-001
8.6256266E-001	-2.125019158271180E-001
8.6155355E-001	-2.136250594285902E-001
8.6056942E-001	-2.134690673797657E-001
8.5955328E-001	-2.135529889276739E-001
8.5855997E-001	-2.147440969668057E-001
8.5757536E-001	-2.148940178600158E-001
8.5655898E-001	-2.158225271850833E-001
8.5555738E-001	-2.160821641553872E-001
8.5455811E-001	-2.162322622068502E-001
8.5355270E-001	-2.165415029006978E-001
8.5254127E-001	-2.168563838856588E-001
8.5156000E-001	-2.176289029626384E-001
8.5055137E-001	-2.191862988251234E-001
8.4956348E-001	-2.187530938190987E-001
8.4857625E-001	-2.199221926706789E-001
8.4755903E-001	-2.203721021198568E-001
8.4654522E-001	-2.210863584100649E-001
8.4555465E-001	-2.213281320269993E-001
8.4460676E-001	-2.219099208723332E-001
8.4353739E-001	-2.225779529178045E-001
8.4255266E-001	-2.226982880383725E-001
8.4155792E-001	-2.231142347402588E-001
8.4057105E-001	-2.235232749263996E-001
8.3953202E-001	-2.252064364858785E-001
8.3857119E-001	-2.247011282791695E-001
8.3755088E-001	-2.251283528145263E-001
8.3655059E-001	-2.265473629727410E-001
8.3557212E-001	-2.268001532363302E-001
8.3453935E-001	-2.270611994382408E-001
8.3357346E-001	-2.281545659320217E-001
8.3256561E-001	-2.284507127823647E-001
8.3154565E-001	-2.290697378899768E-001
8.3056581E-001	-2.282790320545982E-001
8.2954675E-001	-2.302614582909482E-001
8.2855499E-001	-2.302180370315903E-001
8.2755083E-001	-2.306055032589009E-001
8.2658279E-001	-2.311679660170167E-001
8.2554716E-001	-2.310114874745963E-001
8.2455748E-001	-2.318751878898451E-001
8.2354110E-001	-2.333780622316732E-001
8.2256687E-001	-2.335803549115867E-001
8.2153916E-001	-2.342179933631874E-001
8.2055503E-001	-2.347263842476178E-001
8.1955802E-001	-2.352139885391500E-001
8.1856400E-001	-2.356344618731074E-001
8.1755149E-001	-2.357622423312722E-001
8.1654209E-001	-2.379345566172288E-001
8.1556225E-001	-2.375721445445103E-001
8.1455380E-001	-2.378558000825612E-001
8.1357205E-001	-2.379647365736737E-001
8.1255138E-001	-2.390158183665733E-001
8.1154209E-001	-2.384733475606753E-001
8.1059092E-001	-2.404512179259584E-001
8.1003100E-001	-2.388503032701994E-001
8.1064939E-001	2.947465726861874E-003
8.1162882E-001	1.263884857848834E-001
8.1264573E-001	1.560489785926484E-001
8.1363142E-001	1.672767747917945E-001
8.1463969E-001	1.747451915785119E-001
8.1564713E-001	1.787300740920563E-001
8.1665623E-001	1.845707151762865E-001
8.1765735E-001	1.872702873898329E-001
8.1865281E-001	1.885550801849194E-001
8.1965756E-001	1.907154721803299E-001
8.2067001E-001	1.929774374563111E-001
8.2166207E-001	1.944020185964526E-001
8.2265157E-001	1.964533879007733E-001
8.2365257E-001	1.980185303147191E-001
8.2463604E-001	1.985757104983485E-001
8.2565922E-001	1.994929808640378E-001
8.2664514E-001	2.004064837194699E-001
8.2765710E-001	2.017947642744331E-001
8.2867867E-001	2.026982881059800E-001
8.2962942E-001	2.025986099270760E-001
8.3065122E-001	2.034966406170975E-001
8.3167022E-001	2.041967385965919E-001
8.3264351E-001	2.050472424124123E-001
8.3363545E-001	2.056987036571449E-001
8.3461702E-001	2.060630070735456E-001
8.3564132E-001	2.065895353411906E-001
8.3663929E-001	2.077213668919822E-001
8.3762854E-001	2.075547775667572E-001
8.3865356E-001	2.077692200395247E-001
8.3964890E-001	2.083167086389901E-001
8.4064174E-001	2.089410414574325E-001
8.4165269E-001	2.095830122836766E-001
8.4264344E-001	2.088759364560240E-001
8.4365231E-001	2.106709120092480E-001
8.4465808E-001	2.102598843889103E-001
8.4565216E-001	2.098686199773248E-001
8.4665841E-001	2.101905206563298E-001
8.4765768E-001	2.099255394121564E-001
8.4863317E-001	2.104031771283459E-001
8.4964013E-001	2.111723660318945E-001
8.5065687E-001	2.111081835227422E-001
8.5164696E-001	2.110195335138729E-001
8.5264277E-001	2.114640081463310E-001
8.5364443E-001	2.116188637705312E-001
8.5463303E-001	2.110377887125914E-001
8.5564160E-001	2.114096756127699E-001
8.5664320E-001	2.112680902635606E-001
8.5765851E-001	2.118628546595582E-001
8.5864049E-001	2.114122363359295E-001
8.5965133E-001	2.124253608355371E-001
8.6064535E-001	2.125702600382713E-001
8.6163986E-001	2.131785468232856E-001
8.6265373E-001	2.129238078163727E-001
8.6364067E-001	2.123631042669762E-001
8.6463499E-001	2.123502559132051E-001
8.6565441E-001	2.131751207289874E-001
8.6664933E-001	2.127316136396044E-001
8.6762053E-001	2.126749602870807E-001
8.6864591E-001	2.124938507241840E-001
8.6967182E-001	2.123569492250681E-001
8.7063909E-001	2.127090047837950E-001
8.7163788E-001	2.123790020468048E-001
8.7262028E-001	2.127358074541439E-001
8.7363243E-001	2.128852668942667E-001
8.7465256E-001	2.129779528067610E-001
8.7564939E-001	2.129556761916591E-001
8.7660569E-001	2.127531398250846E-001
8.7763155E-001	2.131704170670776E-001
8.7864125E-001	2.127229016688141E-001
8.7961441E-001	2.126427086208151E-001
8.8063216E-001	2.127921960696022E-001
8.8163781E-001	2.143530765962263E-001
8.8264114E-001	2.128232914126578E-001
8.8363504E-001	2.131701308751000E-001
8.8463569E-001	2.139618811025104E-001
8.8563526E-001	2.135260428339056E-001
8.8661182E-001	2.138079761837921E-001
8.8763213E-001	2.135000962902008E-001
8.8862246E-001	2.132172357221993E-001
8.8963097E-001	2.137327774393345E-001
8.9064026E-001	2.138257090830140E-001
8.9162588E-001	2.142594803331619E-001
8.9261919E-001	2.135232298945375E-001
8.9360875E-001	2.146405876846191E-001
8.9461201E-001	2.140832089784520E-001
8.9562768E-001	2.141590219129030E-001
8.9663517E-001	2.137054823752897E-001
8.9760953E-001	2.141516162772419E-001
8.9864540E-001	2.140414623405653E-001
8.9961839E-001	2.145898140346008E-001
9.0061021E-001	2.147877851708069E-001
9.0160286E-001	2.146660083626085E-001
9.0261632E-001	2.149781547486791E-001
9.0359962E-001	2.149746210003896E-001
9.0460646E-001	2.142182707924529E-001
9.0560842E-001	2.161602928061725E-001
9.0659362E-001	2.156863274673606E-001
9.0763825E-001	2.163367145867259E-001
9.0865749E-001	2.154313870878126E-001
9.0957952E-001	2.158085501675182E-001
9.1012865E-001	2.146163244660082E-001
9.0953380E-001	-1.548480458990933E-002
9.0853161E-001	-1.242723514463890E-001
9.0750074E-001	-1.478549358779904E-001
9.0651631E-001	-1.572644432178802E-001
9.0552771E-001	-1.635693770281419E-001
9.0454704E-001	-1.675221053710967E-001
9.0350467E-001	-1.711970889526935E-001
9.0249354E-001	-1.741020242787070E-001
9.0151507E-001	-1.762276204799642E-001
9.0052933E-001	-1.786259733209459E-001
8.9954096E-001	-1.803351885604632E-001
8.9851528E-001	-1.821116305956698E-001
8.9753097E-001	-1.832747558925165E-001
8.9652479E-001	-1.841312649970253E-001
8.9553034E-001	-1.855222370682474E-001
8.9452994E-001	-1.875964786546929E-001
8.9353061E-001	-1.889220876489661E-001
8.9250678E-001	-1.893624038849442E-001
8.9152437E-001	-1.904816552996635E-001
8.9051098E-001	-1.922418276296449E-001
8.8952625E-001	-1.918061313529824E-001
8.8853496E-001	-1.933296587904565E-001
8.8752800E-001	-1.941463838814310E-001
8.8654453E-001	-1.952260836131048E-001
8.8553673E-001	-1.965152170719644E-001
8.8455337E-001	-1.972730848248361E-001
8.8352132E-001	-1.974489193547671E-001
8.8253552E-001	-1.975014825799952E-001
8.8153535E-001	-1.997391222458744E-001
8.8054156E-001	-1.987378808704241E-001
8.7952971E-001	-2.008906157204391E-001
8.7854350E-001	-2.014685026197514E-001
8.7750995E-001	-2.010275512914017E-001
8.7654310E-001	-2.029524982941378E-001
8.7554222E-001	-2.026163109198764E-001
8.7452459E-001	-2.035738917205636E-001
8.7351882E-001	-2.038673960983206E-001
8.7254363E-001	-2.047025799682300E-001
8.7152356E-001	-2.055460155286166E-001
8.7051582E-001	-2.058707551547769E-001
8.6952084E-001	-2.067978431436197E-001
8.6852890E-001	-2.076429003623388E-001
8.6755371E-001	-2.067289774961496E-001
8.6654329E-001	-2.084187633116494E-001
8.6554354E-001	-2.090751236235652E-001
8.6455560E-001	-2.089421880879888E-001
8.6352676E-001	-2.100567917373994E-001
8.6252809E-001	-2.098260894417763E-001
8.6152059E-001	-2.106732352533278E-001
8.6052221E-001	-2.111075167253764E-001
8.5952574E-001	-2.114363362046854E-001
8.5855299E-001	-2.126209898679345E-001
8.5754877E-001	-2.134589678780350E-001
8.5654789E-001	-2.142399620885653E-001
8.5555953E-001	-2.145968458304806E-001
8.5452563E-001	-2.147952496867487E-001
8.5351866E-001	-2.154609118070864E-001
8.5254645E-001	-2.157234462558062E-001
8.5156989E-001	-2.164445281442666E-001
8.5056573E-001	-2.169931033557218E-001
8.4954792E-001	-2.170502795596367E-001
8.4856492E-001	-2.184823999112409E-001
8.4753412E-001	-2.184619295790227E-001
8.4655881E-001	-2.186125504473853E-001
8.4554595E-001	-2.203081501992772E-001
8.4453571E-001	-2.203229628019341E-001
8.4353685E-001	-2.203555575537461E-001
8.4257150E-001	-2.206178670404131E-001
8.4154946E-001	-2.218101335068545E-001
8.4056276E-001	-2.214381707901198E-001
8.3956355E-001	-2.230485704279055E-001
8.3853579E-001	-2.227924871085976E-001
8.3755171E-001	-2.239726859455295E-001
8.3658266E-001	-2.237444317520212E-001
8.3554626E-001	-2.250226866677835E-001
8.3457690E-001	-2.264238636664766E-001
8.3354723E-001	-2.259787800894288E-001
8.3257324E-001	-2.253934798624235E-001
8.3155334E-001	-2.276103000536001E-001
8.3055806E-001	-2.275515152141461E-001
8.2956332E-001	-2.285004788664744E-001
8.2853884E-001	-2.293253600321421E-001
8.2756311E-001	-2.292161789248652E-001
8.2656902E-001	-2.297063045617600E-001
8.2555884E-001	-2.296226395432055E-001
8.2453704E-001	-2.306955318415055E-001
8.2355732E-001	-2.317725059196900E-001
8.2257211E-001	-2.313210032190436E-001
8.2155848E-001	-2.322522212095826E-001
8.2055908E-001	-2.335380557579585E-001
8.1957322E-001	-2.329380297141448E-001
8.1858927E-001	-2.337679816754878E-001
8.1757879E-001	-2.346920007494853E-001
8.1660044E-001	-2.370287121652996E-001
8.1552696E-001	-2.363833543603056E-001
8.1456465E-001	-2.367223853038425E-001
8.1356466E-001	-2.371486025965885E-001
8.1253862E-001	-2.375893643884739E-001
8.1156445E-001	-2.375221743972769E-001
8.1058913E-001	-2.391985577018261E-001
8.1013417E-001	-2.368780821561813E-001
8.1064540E-001	4.072213384479328E-003
8.1165838E-001	1.280734370531582E-001
8.1263971E-001	1.559397453373237E-001
8.1364620E-001	1.682318785158849E-001
8.1464398E-001	1.750719234588797E-001
8.1567627E-001	1.800883481175530E-001
8.1664020E-001	1.838987480193653E-001
8.1766313E-001	1.882390407672911E-001
8.1865782E-001	1.886750843237950E-001
8.1965268E-001	1.913356418409435E-001
8.2066077E-001	1.943199989489379E-001
8.2165337E-001	1.948748789210293E-001
8.2265204E-001	1.967957829366673E-001
8.2368422E-001	1.985361880657307E-001
8.2462937E-001	1.993869634483145E-001
8.2566357E-001	1.996232937607494E-001
8.2663524E-001	2.014933320935128E-001
8.2765180E-001	2.022863526216749E-001
8.2866341E-001	2.041370173985202E-001
8.2966769E-001	2.024494351612196E-001
8.3065975E-001	2.046172557122721E-001
8.3166015E-001	2.054511109298041E-001
8.3263725E-001	2.053637630823582E-001
8.3364010E-001	2.070386595679101E-001
8.3467078E-001	2.069383890678504E-001
8.3563554E-001	2.079629199985478E-001
8.3667618E-001	2.084827938772467E-001
8.3765322E-001	2.084106691871526E-001
8.3866799E-001	2.086041207183835E-001
8.3965868E-001	2.087698004863885E-001
8.4065855E-001	2.101994978470922E-001
8.4167147E-001	2.100898312680698E-001
8.4265465E-001	2.095538607833021E-001
8.4366971E-001	2.103153444041523E-001
8.4467185E-001	2.101748371151864E-001
8.4564626E-001	2.100586496914438E-001
8.4664261E-001	2.108282942531834E-001
8.4766555E-001	2.109287495690366E-001
8.4864140E-001	2.111439718002522E-001
8.4965628E-001	2.112435171104670E-001
8.5066569E-001	2.119400555405893E-001
8.5165602E-001	2.112340002010269E-001
8.5262740E-001	2.129956833366746E-001
8.5364521E-001	2.122623908023044E-001
8.5463762E-001	2.119124263042098E-001
8.5564381E-001	2.122563862897182E-001
8.5664260E-001	2.120932278878715E-001
8.5765135E-001	2.123451541281411E-001
8.5863525E-001	2.122862378342285E-001
8.5963392E-001	2.128563216645962E-001
8.6063272E-001	2.136325518428726E-001
8.6165535E-001	2.135180481537082E-001
8.6263967E-001	2.131201365824653E-001
8.6366111E-001	2.126162552309254E-001
8.6464256E-001	2.130788057973536E-001
8.6566532E-001	2.135183231698139E-001
8.6666030E-001	2.127212524345072E-001
8.6762810E-001	2.127180146053438E-001
8.6863530E-001	2.130622855909164E-001
8.6965072E-001	2.131973914802070E-001
8.7067354E-001	2.136790888659937E-001
8.7166935E-001	2.130370366352565E-001
8.7262517E-001	2.133084770843938E-001
8.7364137E-001	2.136210197996773E-001
8.7465322E-001	2.140196149616886E-001
8.7563711E-001	2.135714675058362E-001
8.7664527E-001	2.131990739355265E-001
8.7761873E-001	2.132361892058898E-001
8.7866741E-001	2.139530850712337E-001
8.7965834E-001	2.134951695247933E-001
8.8066536E-001	2.138954084366558E-001
8.8162190E-001	2.142449484241239E-001
8.8262933E-001	2.137494866770728E-001
8.8363343E-001	2.135299073394252E-001
8.8459861E-001	2.137910933406268E-001
8.8560975E-001	2.147869526866648E-001
8.8662654E-001	2.145356630078616E-001
8.8761950E-001	2.149064123492552E-001
8.8861990E-001	2.142999967284238E-001
8.8962245E-001	2.145061400477521E-001
8.9064085E-001	2.140920049062498E-001
8.9162880E-001	2.139840690695021E-001
8.9259613E-001	2.148303386099912E-001
8.9361048E-001	2.150430784750932E-001
8.9460611E-001	2.145811699813724E-001
8.9560783E-001	2.151662007112201E-001
8.9663023E-001	2.149571064100779E-001
8.9758766E-001	2.151194757747428E-001
8.9862251E-001	2.152499309568485E-001
8.9964455E-001	2.153962071364119E-001
9.0060598E-001	2.161098089483047E-001
9.0161514E-001	2.148885189389853E-001
9.0262616E-001	2.156830900521192E-001
9.0361387E-001	2.151326614052609E-001
9.0463740E-001	2.157991143909319E-001
9.0561754E-001	2.158006230300229E-001
9.0661794E-001	2.155573884784081E-001
9.0761882E-001	2.164443014879480E-001
9.0861696E-001	2.162328169301704E-001
9.0957606E-001	2.155204793671146E-001
9.1012108E-001	2.250680662691593E-001