Ewe/V	<I>/mA	
8.1053150E-001	-3.992596149444580E+000
8.1113845E-001	-5.057276119672078E-001
8.1217897E-001	-8.161787911256102E-002
8.1322002E-001	-3.074791459126985E-002
8.1425023E-001	-1.065822143869379E-002
8.1529099E-001	2.635060796231649E-004
8.1627637E-001	7.291655915908066E-003
8.1727636E-001	1.280997250919844E-002
8.1830448E-001	1.656646657745140E-002
8.1928825E-001	1.915880918538576E-002
8.2028109E-001	2.147709786947025E-002
8.2126600E-001	2.333504041696516E-002
8.2227474E-001	2.507893462572158E-002
8.2326722E-001	2.667761216687842E-002
8.2427460E-001	2.784150257773715E-002
8.2525748E-001	2.935365594399418E-002
8.2624644E-001	2.919683888647373E-002
8.2726759E-001	3.057572836532235E-002
8.2824773E-001	3.134046960204817E-002
8.2926035E-001	3.168274078612709E-002
8.3025157E-001	3.272048024106837E-002
8.3126044E-001	3.288307447189209E-002
8.3227575E-001	3.352838422972715E-002
8.3327049E-001	3.422660366581970E-002
8.3425611E-001	3.445019923848269E-002
8.3526909E-001	3.508097480437700E-002
8.3627045E-001	3.483173082088475E-002
8.3728403E-001	3.533702917080817E-002
8.3827549E-001	3.568109848593293E-002
8.3924454E-001	3.582321473387625E-002
8.4026361E-001	3.634374547603983E-002
8.4126222E-001	3.630771192698667E-002
8.4224713E-001	3.643557916216689E-002
8.4327787E-001	3.670074349422814E-002
8.4424669E-001	3.689957280771350E-002
8.4527725E-001	3.725496297001188E-002
8.4626448E-001	3.766629727718562E-002
8.4723437E-001	3.754151440117859E-002
8.4826458E-001	3.751350748836702E-002
8.4926492E-001	3.752317862396160E-002
8.5026890E-001	3.784775066855106E-002
8.5129249E-001	3.758249621831067E-002
8.5224313E-001	3.794911299292003E-002
8.5323364E-001	3.803466645480010E-002
8.5426515E-001	3.789658372777172E-002
8.5523701E-001	3.830757107177662E-002
8.5625315E-001	3.883205302392156E-002
8.5723859E-001	3.849458550653806E-002
8.5824323E-001	3.831755729996363E-002
8.5924447E-001	3.850968104335945E-002
8.6023033E-001	3.858226167516761E-002
8.6123097E-001	3.884754684256340E-002
8.6226529E-001	3.926327731338664E-002
8.6324990E-001	3.884259755739883E-002
8.6426473E-001	3.924170449283110E-002
8.6523438E-001	3.854377923432806E-002
8.6622769E-001	3.859180061306844E-002
8.6723101E-001	3.949775217767257E-002
8.6826390E-001	3.885462882471232E-002
8.6924249E-001	3.946564435332528E-002
8.7023199E-001	3.906466757867866E-002
8.7124765E-001	3.879753391068141E-002
8.7224239E-001	3.943718027323495E-002
8.7323850E-001	3.933238384971494E-002
8.7424040E-001	3.943142368467850E-002
8.7523687E-001	3.925857845017022E-002
8.7623650E-001	3.941077518937830E-002
8.7722063E-001	3.971646002183278E-002
8.7824047E-001	3.979314908245110E-002
8.7926370E-001	3.950422090777916E-002
8.8026810E-001	3.995676068776044E-002
8.8125461E-001	3.953817290317363E-002
8.8227850E-001	3.936097440932201E-002
8.8327390E-001	3.957638318907464E-002
8.8426834E-001	3.930259378694567E-002
8.8525265E-001	3.973196372226656E-002
8.8623405E-001	3.983708655989093E-002
8.8724720E-001	3.972837035733862E-002
8.8822466E-001	3.958499595935450E-002
8.8923448E-001	3.965370965608128E-002
8.9023554E-001	3.993265077622166E-002
8.9121693E-001	3.985845565455404E-002
8.9222956E-001	4.005604689374520E-002
8.9320743E-001	3.993712248037262E-002
8.9423865E-001	4.006855795493725E-002
8.9526361E-001	3.998246904411606E-002
8.9622182E-001	4.011522624541515E-002
8.9723957E-001	3.987075473488727E-002
8.9823616E-001	4.011803529530614E-002
8.9923143E-001	3.998791227971732E-002
9.0021580E-001	3.974607430655364E-002
9.0121615E-001	4.001311101119520E-002
9.0220296E-001	4.054240760571559E-002
9.0321726E-001	4.011790171424257E-002
9.0422982E-001	4.039897952115312E-002
9.0523040E-001	4.065573173762602E-002
9.0622199E-001	4.039037890405162E-002
9.0725219E-001	4.063871679887554E-002
9.0824062E-001	4.061168777933719E-002
9.0923005E-001	4.025836591692272E-002
9.0987462E-001	4.040614188829014E-002
9.1016310E-001	4.066916043677959E-002
9.0948290E-001	-1.821422856237542E-002
9.0845013E-001	-2.629586908615597E-002
9.0743613E-001	-2.833899189834899E-002
9.0644699E-001	-2.989655384046414E-002
9.0543681E-001	-3.062776382140686E-002
9.0446937E-001	-3.112834035151885E-002
9.0342283E-001	-3.163995123071894E-002
9.0244329E-001	-3.226002318764555E-002
9.0143585E-001	-3.284854349815475E-002
9.0043563E-001	-3.327020189600860E-002
8.9943516E-001	-3.388644772161144E-002
8.9843142E-001	-3.390031966881640E-002
8.9741921E-001	-3.444619462319917E-002
8.9643455E-001	-3.428037481809763E-002
8.9543229E-001	-3.455629999472476E-002
8.9443636E-001	-3.506646086929177E-002
8.9345342E-001	-3.523905179980036E-002
8.9243716E-001	-3.567561423822541E-002
8.9142632E-001	-3.589703956298446E-002
8.9044017E-001	-3.576807788404357E-002
8.8942814E-001	-3.605538465526592E-002
8.8843954E-001	-3.607674517469539E-002
8.8743663E-001	-3.682428285580341E-002
8.8644904E-001	-3.667836609683711E-002
8.8542414E-001	-3.677397563931281E-002
8.8448513E-001	-3.696202031022944E-002
8.8344526E-001	-3.693635775826216E-002
8.8245922E-001	-3.770021395831430E-002
8.8147867E-001	-3.741127591643575E-002
8.8045406E-001	-3.753812405265711E-002
8.7946278E-001	-3.779108743233378E-002
8.7845665E-001	-3.796615329166109E-002
8.7747544E-001	-3.806589140620875E-002
8.7648606E-001	-3.827713486925427E-002
8.7546265E-001	-3.872274061146297E-002
8.7445408E-001	-3.875614591543697E-002
8.7343377E-001	-3.903683054230500E-002
8.7244040E-001	-3.891010403455963E-002
8.7145376E-001	-3.873049277531859E-002
8.7045634E-001	-3.946969512962295E-002
8.6943054E-001	-3.947884661536055E-002
8.6845583E-001	-3.924210058759364E-002
8.6744857E-001	-3.972306765603528E-002
8.6643857E-001	-3.981432090196291E-002
8.6545169E-001	-4.011113016897738E-002
8.6446321E-001	-3.980366322695938E-002
8.6344427E-001	-4.054318331965776E-002
8.6245281E-001	-4.028155009129419E-002
8.6145496E-001	-4.018944154717163E-002
8.6045915E-001	-4.066958129480180E-002
8.5947663E-001	-4.056472398477151E-002
8.5844290E-001	-4.102328608036132E-002
8.5744548E-001	-4.067679635949584E-002
8.5644376E-001	-4.098893780641838E-002
8.5548645E-001	-4.077206852516452E-002
8.5447443E-001	-4.171887207168501E-002
8.5346639E-001	-4.119131463583181E-002
8.5244566E-001	-4.154157095167155E-002
8.5144627E-001	-4.162025388737456E-002
8.5048181E-001	-4.192681791939823E-002
8.4945208E-001	-4.183999570835673E-002
8.4846592E-001	-4.199914816319672E-002
8.4746653E-001	-4.215449840443453E-002
8.4648401E-001	-4.222594019305959E-002
8.4547007E-001	-4.250856659983659E-002
8.4446323E-001	-4.252795088251013E-002
8.4346163E-001	-4.269235396230320E-002
8.4243876E-001	-4.267125934464965E-002
8.4147924E-001	-4.274552089319061E-002
8.4048116E-001	-4.322309980056438E-002
8.3947086E-001	-4.305003601253987E-002
8.3848703E-001	-4.335569339140077E-002
8.3747762E-001	-4.356316253114145E-002
8.3647877E-001	-4.376015409086173E-002
8.3545983E-001	-4.379188234106085E-002
8.3446038E-001	-4.374183561258183E-002
8.3348906E-001	-4.399985163455911E-002
8.3247584E-001	-4.365065481401087E-002
8.3147323E-001	-4.414723405454266E-002
8.3049208E-001	-4.423083048562992E-002
8.2947838E-001	-4.480101473526649E-002
8.2844895E-001	-4.462434918082270E-002
8.2750916E-001	-4.463828066219533E-002
8.2647359E-001	-4.503312963812112E-002
8.2551098E-001	-4.484854583300180E-002
8.2448822E-001	-4.490932780327284E-002
8.2347882E-001	-4.539906783496761E-002
8.2246345E-001	-4.516459468127609E-002
8.2148719E-001	-4.567983243678919E-002
8.2047898E-001	-4.564928463710261E-002
8.1948996E-001	-4.555934798320171E-002
8.1846470E-001	-4.653479984217068E-002
8.1747621E-001	-4.649222070869086E-002
8.1646818E-001	-4.643452191820138E-002
8.1545877E-001	-4.620663994108742E-002
8.1449491E-001	-4.623793090126407E-002
8.1347054E-001	-4.653449413970806E-002
8.1246752E-001	-4.697807779654994E-002
8.1147265E-001	-4.651319423090294E-002
8.1054962E-001	-4.702377745083386E-002
8.1010365E-001	-4.707643753430975E-002
8.1073236E-001	1.819769803509641E-002
8.1175405E-001	2.438883983912293E-002
8.1274462E-001	2.663521509646152E-002
8.1372619E-001	2.788506878379698E-002
8.1472051E-001	2.937628706292250E-002
8.1574416E-001	3.034720521886697E-002
8.1676292E-001	3.139332410592355E-002
8.1774086E-001	3.148353575296370E-002
8.1877178E-001	3.185871683943886E-002
8.1973422E-001	3.209564004110443E-002
8.2074791E-001	3.300425331757650E-002
8.2176185E-001	3.254783149361347E-002
8.2276559E-001	3.356516021563996E-002
8.2376063E-001	3.369610459721201E-002
8.2476127E-001	3.367118587997819E-002
8.2580948E-001	3.764555227514786E-002
8.2686424E-001	3.815236193041138E-002
8.2783449E-001	3.791571370904387E-002
8.2886595E-001	3.806746993589638E-002
8.2987022E-001	3.822727824768257E-002
8.3088011E-001	3.871508799799950E-002
8.3186686E-001	3.858114757464934E-002
8.3284283E-001	3.840596894373138E-002
8.3386433E-001	3.924185356581367E-002
8.3483779E-001	3.909554748001473E-002
8.3585125E-001	3.924688133027365E-002
8.3685499E-001	3.930517478502193E-002
8.3788377E-001	3.959246135919015E-002
8.3887303E-001	3.948273859099803E-002
8.3988243E-001	3.937881595812287E-002
8.4086460E-001	3.920891261255810E-002
8.4184474E-001	3.976637885595359E-002
8.4283519E-001	3.990211485254846E-002
8.4385818E-001	3.961501660773774E-002
8.4486222E-001	3.977575592736721E-002
8.4585160E-001	4.025001977144727E-002
8.4684074E-001	4.019198753440412E-002
8.4784859E-001	3.974675592312149E-002
8.4886956E-001	3.966445241040162E-002
8.4984457E-001	4.009620862508929E-002
8.5086012E-001	4.026784752424642E-002
8.5186362E-001	4.003031550859111E-002
8.5285395E-001	4.032055820658487E-002
8.5384029E-001	4.032995272407242E-002
8.5483831E-001	3.984585170897792E-002
8.5584176E-001	4.022196872582673E-002
8.5684228E-001	4.040634583040903E-002
8.5785484E-001	4.019542109123747E-002
8.5882550E-001	4.023254045543079E-002
8.5982835E-001	4.010782820109171E-002
8.6083251E-001	4.033814570711503E-002
8.6184651E-001	4.042424360112773E-002
8.6282712E-001	4.018108005965915E-002
8.6384225E-001	4.045291843326004E-002
8.6482352E-001	4.040894823609542E-002
8.6582023E-001	4.037857493852481E-002
8.6681437E-001	4.031501528780046E-002
8.6785311E-001	4.011922877442120E-002
8.6882120E-001	4.055014562746823E-002
8.6984742E-001	4.052728040337457E-002
8.7083435E-001	4.064110818896238E-002
8.7183279E-001	4.061553566028586E-002
8.7284398E-001	4.014743761556705E-002
8.7380803E-001	4.018453406544675E-002
8.7481558E-001	4.083581467068964E-002
8.7584180E-001	4.046231467592790E-002
8.7685823E-001	4.062697718625297E-002
8.7782454E-001	4.044274182816615E-002
8.7885517E-001	4.053789027041999E-002
8.7983561E-001	4.061385166353965E-002
8.8085300E-001	4.052827324580688E-002
8.8184160E-001	4.043334159869205E-002
8.8284230E-001	4.087955003777866E-002
8.8384587E-001	4.050770913556689E-002
8.8481313E-001	4.040716489523266E-002
8.8586015E-001	4.066773117053274E-002
8.8681573E-001	4.002030583782416E-002
8.8783807E-001	4.075925999678209E-002
8.8882428E-001	4.063581643732650E-002
8.8983238E-001	4.089464529127040E-002
8.9083976E-001	4.065030795283836E-002
8.9183509E-001	4.058266422595894E-002
8.9281708E-001	4.066863216586586E-002
8.9383590E-001	4.084078449313833E-002
8.9485681E-001	4.115358381749118E-002
8.9584649E-001	4.112278668198623E-002
8.9683026E-001	4.040995045419338E-002
8.9781022E-001	4.111468634070770E-002
8.9884204E-001	4.060589019938277E-002
8.9985323E-001	4.076560585708486E-002
9.0082824E-001	4.110965500235242E-002
9.0185988E-001	4.091876753642256E-002
9.0283316E-001	4.072547589986164E-002
9.0383375E-001	4.085568456265798E-002
9.0480566E-001	4.087173109548531E-002
9.0579480E-001	4.100923350675023E-002
9.0681112E-001	4.125655406072593E-002
9.0783030E-001	4.109622608690000E-002
9.0882760E-001	4.089135218508971E-002
9.0970063E-001	4.111945661415736E-002
9.1009432E-001	4.163489266047404E-002
9.0952724E-001	-1.789764405498412E-002
9.0856445E-001	-2.557595055144202E-002
9.0751439E-001	-2.788471601366004E-002
9.0654665E-001	-2.909944302275613E-002
9.0553743E-001	-2.988061262092268E-002
9.0457261E-001	-3.054964489313533E-002
9.0352196E-001	-3.173157979780900E-002
9.0250295E-001	-3.214325359521775E-002
9.0151989E-001	-3.229823060698989E-002
9.0051466E-001	-3.271229841875634E-002
8.9951348E-001	-3.307380962459278E-002
8.9853090E-001	-3.320109569727003E-002
8.9752793E-001	-3.395241868889157E-002
8.9653492E-001	-3.383789252797892E-002
8.9555717E-001	-3.451097836231953E-002
8.9455271E-001	-3.450191850143097E-002
8.9352167E-001	-3.493944425812878E-002
8.9252281E-001	-3.488540479506108E-002
8.9152724E-001	-3.527774175664267E-002
8.9054292E-001	-3.538137074001069E-002
8.8953906E-001	-3.536648661195299E-002
8.8853425E-001	-3.630267653425778E-002
8.8754088E-001	-3.610695725927771E-002
8.8653839E-001	-3.628340965695753E-002
8.8557041E-001	-3.634460153838870E-002
8.8455617E-001	-3.658284621203062E-002
8.8354266E-001	-3.683716971583184E-002
8.8254797E-001	-3.702289843062145E-002
8.8154662E-001	-3.728267213823713E-002
8.8056803E-001	-3.735148166055362E-002
8.7953871E-001	-3.782831510782611E-002
8.7853891E-001	-3.784310407815211E-002
8.7757683E-001	-3.785925174929083E-002
8.7656510E-001	-3.792285278028951E-002
8.7558705E-001	-3.798487335711004E-002
8.7455451E-001	-3.846829306204064E-002
8.7353206E-001	-3.885891550373588E-002
8.7256229E-001	-3.816719689756803E-002
8.7154871E-001	-3.875752734053728E-002
8.7054181E-001	-3.891850901870320E-002
8.6955965E-001	-3.892712182729197E-002
8.6856091E-001	-3.929736999736577E-002
8.6753440E-001	-3.908464911411536E-002
8.6658061E-001	-3.888671673871058E-002
8.6557966E-001	-3.951469656400497E-002
8.6455947E-001	-3.936424977513275E-002
8.6357224E-001	-4.047829605467440E-002
8.6255258E-001	-4.004945807987159E-002
8.6157244E-001	-4.018609980655345E-002
8.6054695E-001	-4.042873316568829E-002
8.5955143E-001	-3.989783079466891E-002
8.5855210E-001	-4.050841141604689E-002
8.5757703E-001	-4.068780526949978E-002
8.5654759E-001	-4.095683527582955E-002
8.5556096E-001	-4.088576014979839E-002
8.5455048E-001	-4.087755516318342E-002
8.5355079E-001	-4.114907121424838E-002
8.5255980E-001	-4.064206704546564E-002
8.5159016E-001	-4.132987311657332E-002
8.5056919E-001	-4.189668271016123E-002
8.4957165E-001	-4.189086499153305E-002
8.4856665E-001	-4.169166646827238E-002
8.4755844E-001	-4.157710595175712E-002
8.4660220E-001	-4.224587873952923E-002
8.4555167E-001	-4.231897755338546E-002
8.4456706E-001	-4.260969541870334E-002
8.4358788E-001	-4.229194587129953E-002
8.4255940E-001	-4.247033931936450E-002
8.4158313E-001	-4.261986952355160E-002
8.4059513E-001	-4.261365789618643E-002
8.3958048E-001	-4.275281983789914E-002
8.3857471E-001	-4.299825995219186E-002
8.3758968E-001	-4.329839366789072E-002
8.3661056E-001	-4.329584469003961E-002
8.3556873E-001	-4.336994128079225E-002
8.3459830E-001	-4.372108623838855E-002
8.3355165E-001	-4.377968115798836E-002
8.3255517E-001	-4.367629640924742E-002
8.3158797E-001	-4.407915871884130E-002
8.3059371E-001	-4.379569713333112E-002
8.2958233E-001	-4.431208779803586E-002
8.2857358E-001	-4.471612489351651E-002
8.2759130E-001	-4.442865552246700E-002
8.2657349E-001	-4.415687140057320E-002
8.2556665E-001	-4.466150504462818E-002
8.2459372E-001	-4.489747459246482E-002
8.2357115E-001	-4.532421882494631E-002
8.2258058E-001	-4.499406334360762E-002
8.2158107E-001	-4.552446136344557E-002
8.2054377E-001	-4.533560002953740E-002
8.1959891E-001	-4.515453476473019E-002
8.1856728E-001	-4.564898291696196E-002
8.1757927E-001	-4.576965862257532E-002
8.1656343E-001	-4.607461232151211E-002
8.1558400E-001	-4.572073190545756E-002
8.1460881E-001	-4.602320375097935E-002
8.1356716E-001	-4.662993247203490E-002
8.1257790E-001	-4.657207375443739E-002
8.1157666E-001	-4.650904778658183E-002
8.1062275E-001	-4.673233372928720E-002
8.1011128E-001	-4.616014055145068E-002
8.1069636E-001	1.819183424913201E-002
8.1174856E-001	2.809964827976222E-002
8.1276792E-001	3.038288316289031E-002
8.1374657E-001	3.157404886465187E-002
8.1474394E-001	3.277738456854656E-002
8.1574726E-001	3.381214582796505E-002
8.1672978E-001	3.474076101255991E-002
8.1776804E-001	3.526522703774215E-002
8.1878823E-001	3.538345565729738E-002
8.1974441E-001	3.609697466314488E-002
8.2076454E-001	3.632578273540620E-002
8.2174450E-001	3.636865761701857E-002
8.2276171E-001	3.681468370618768E-002
8.2375556E-001	3.736676058663846E-002
8.2472157E-001	3.753053892226943E-002
8.2577115E-001	3.711472645052871E-002
8.2676047E-001	3.798211609200297E-002
8.2774830E-001	3.818023746288168E-002
8.2874507E-001	3.808132143953688E-002
8.2974589E-001	3.830558608876933E-002
8.3073944E-001	3.851609596070626E-002
8.3173066E-001	3.874642518682803E-002
8.3272004E-001	3.889272347905125E-002
8.3373511E-001	3.866830353234407E-002
8.3473766E-001	3.934952567068289E-002
8.3575505E-001	3.923636483618576E-002
8.3672917E-001	3.924493852996114E-002
8.3773446E-001	3.967850088883451E-002
8.3875793E-001	3.933535372875285E-002
8.3975643E-001	3.956500434660522E-002
8.4074593E-001	3.966407047377529E-002
8.4172672E-001	3.965241172748196E-002
8.4271324E-001	3.998669535107385E-002
8.4374750E-001	3.943546317040303E-002
8.4474289E-001	3.981018170220363E-002
8.4573227E-001	4.004495666785018E-002
8.4674966E-001	4.008049557926838E-002
8.4774506E-001	4.016540579895897E-002
8.4872204E-001	3.991890788563490E-002
8.4974337E-001	4.031843417674630E-002
8.5075265E-001	4.023910019988242E-002
8.5172170E-001	4.008546178836320E-002
8.5273159E-001	4.028245702228606E-002
8.5373497E-001	4.005694423684628E-002
8.5474664E-001	4.001210189815013E-002
8.5571462E-001	4.008546850213807E-002
8.5671371E-001	4.010049194117543E-002
8.5773277E-001	4.051245954853355E-002
8.5873884E-001	4.078180539997089E-002
8.5976326E-001	4.051250310975230E-002
8.6075974E-001	4.023614519656380E-002
8.6173677E-001	4.072451022850843E-002
8.6275482E-001	4.049458437311221E-002
8.6374670E-001	4.021631540619176E-002
8.6476082E-001	4.030739277347561E-002
8.6574918E-001	4.058192877454436E-002
8.6672747E-001	4.041604741933824E-002
8.6772454E-001	4.045054137111426E-002
8.6874878E-001	4.048639103144702E-002
8.6973423E-001	4.074621028483827E-002
8.7076712E-001	4.066238135462935E-002
8.7173772E-001	4.074174316313528E-002
8.7275970E-001	4.060264532365709E-002
8.7374544E-001	4.054055064724821E-002
8.7472153E-001	4.076276566018766E-002
8.7575263E-001	4.052098660466563E-002
8.7676054E-001	4.056755201120765E-002
8.7773120E-001	4.084185863541279E-002
8.7875468E-001	4.048390510900568E-002
8.7976086E-001	4.029601368732677E-002
8.8072556E-001	4.070334262918607E-002
8.8173229E-001	4.053172518609272E-002
8.8274169E-001	4.073833763986628E-002
8.8373595E-001	4.075694075440863E-002
8.8476586E-001	4.071813214930808E-002
8.8575137E-001	4.074095380910292E-002
8.8671923E-001	4.082588168431867E-002
8.8775146E-001	4.060959848859036E-002
8.8872325E-001	4.051748970552255E-002
8.8972986E-001	4.086367678611558E-002
8.9073360E-001	4.052208177555905E-002
8.9174128E-001	4.063169649066116E-002
8.9270711E-001	4.036708727418881E-002
8.9368939E-001	4.088385097996411E-002
8.9469773E-001	4.045631320926785E-002
8.9568514E-001	4.074846402661048E-002
8.9669424E-001	4.071702981885639E-002
8.9769787E-001	4.086894107361638E-002
8.9868265E-001	4.092652778423822E-002
8.9971840E-001	4.108890792601960E-002
9.0069771E-001	4.135225364124434E-002
9.0173054E-001	4.131602668247680E-002
9.0270877E-001	4.096393455420766E-002
9.0373152E-001	4.110242041634149E-002
9.0474159E-001	4.114749735085610E-002
9.0569800E-001	4.084271268520334E-002
9.0669227E-001	4.087798850567681E-002
9.0771389E-001	4.078432157181699E-002
9.0871257E-001	4.115503367398332E-002
9.0960425E-001	4.125565218777832E-002
9.1004848E-001	5.581861236614394E-002