Ewe/V	<I>/mA	
8.2052481E-001	-6.208975791931152E+000
8.2105917E-001	-4.906398423016057E+000
8.2209128E-001	-3.121220156964334E+000
8.2306856E-001	-1.960909804846686E+000
8.2408702E-001	-1.184217576196212E+000
8.2584989E-001	-4.035537794309989E-001
8.2755929E-001	8.352719246371021E-002
8.2858813E-001	2.500345061998810E-001
8.2955545E-001	3.737079295226291E-001
8.3059287E-001	4.698721298482234E-001
8.3158416E-001	5.443944247025581E-001
8.3258802E-001	6.045785708766847E-001
8.3357120E-001	6.513286585298683E-001
8.3457190E-001	6.912795753839136E-001
8.3558124E-001	7.228619383337600E-001
8.3658397E-001	7.523239392580257E-001
8.3756131E-001	7.752964707194927E-001
8.3856517E-001	7.941316455706140E-001
8.3959824E-001	8.134897578404203E-001
8.4055829E-001	8.288552741416670E-001
8.4158665E-001	8.419313284878980E-001
8.4259325E-001	8.531855328215505E-001
8.4355962E-001	8.635243771908194E-001
8.4457093E-001	8.747579325507928E-001
8.4555459E-001	8.840450159687991E-001
8.4658390E-001	8.914928523202690E-001
8.4756839E-001	8.977277450677441E-001
8.4857166E-001	9.063524597117480E-001
8.4956741E-001	9.127162455374211E-001
8.5057044E-001	9.173149609317406E-001
8.5154623E-001	9.222940067346723E-001
8.5255688E-001	9.296922293746288E-001
8.5355449E-001	9.334543845616299E-001
8.5457659E-001	9.362514772866355E-001
8.5556448E-001	9.390071972997660E-001
8.5655797E-001	9.433280115222775E-001
8.5754710E-001	9.476992603805341E-001
8.5855228E-001	9.488304989515930E-001
8.5955757E-001	9.536626279457576E-001
8.6056691E-001	9.551115857644241E-001
8.6157209E-001	9.576414042773393E-001
8.6255711E-001	9.598068261726027E-001
8.6356479E-001	9.612059025611317E-001
8.6455572E-001	9.627391817048210E-001
8.6556548E-001	9.651656125982622E-001
8.6654574E-001	9.667322378502128E-001
8.6752683E-001	9.699648012821063E-001
8.6854935E-001	9.697919140776836E-001
8.6952269E-001	9.710202502190270E-001
8.7055469E-001	9.745221611422821E-001
8.7155962E-001	9.761959950232679E-001
8.7256354E-001	9.774678141499571E-001
8.7356216E-001	9.790418778753123E-001
8.7455124E-001	9.796719464162997E-001
8.7556511E-001	9.812147713576751E-001
8.7655473E-001	9.816602569901303E-001
8.7756735E-001	9.828694758729810E-001
8.7857771E-001	9.841985940519287E-001
8.7956393E-001	9.847230661867421E-001
8.8055867E-001	9.853679955833456E-001
8.8156718E-001	9.876363186372705E-001
8.8254768E-001	9.885013466700947E-001
8.8356608E-001	9.901597908594546E-001
8.8455117E-001	9.897498763683803E-001
8.8554764E-001	9.904939353259064E-001
8.8656485E-001	9.923384873610415E-001
8.8753843E-001	9.940563374095510E-001
8.8852012E-001	9.940133849158883E-001
8.8955492E-001	9.936315330366341E-001
8.9055318E-001	9.944127160641871E-001
8.9157134E-001	9.960118114120426E-001
8.9251786E-001	9.952294976553944E-001
8.9353043E-001	9.982814797294459E-001
8.9456433E-001	1.002215879865821E+000
8.9552522E-001	1.000159706609946E+000
8.9655465E-001	1.000176629879409E+000
8.9756262E-001	1.001303169255454E+000
8.9853680E-001	1.002868202514946E+000
8.9953166E-001	1.002495433410839E+000
9.0055549E-001	1.004422179319791E+000
9.0153432E-001	1.004279517154727E+000
9.0257174E-001	1.004364337151252E+000
9.0353388E-001	1.005729525763957E+000
9.0451610E-001	1.004740387408273E+000
9.0555662E-001	1.007351365147365E+000
9.0654647E-001	1.008155908125140E+000
9.0754920E-001	1.008963636329607E+000
9.0853125E-001	1.009990409637492E+000
9.0955621E-001	1.010104457951261E+000
9.1015923E-001	1.002817417894091E+000
9.0955651E-001	5.729591130123790E-001
9.0855652E-001	6.740851169080209E-002
9.0756071E-001	-2.347233501625139E-001
9.0653282E-001	-4.260361259285763E-001
9.0555733E-001	-5.536496285349131E-001
9.0454942E-001	-6.406704379866532E-001
9.0351123E-001	-7.012761806448282E-001
9.0255320E-001	-7.451660666200841E-001
9.0155458E-001	-7.790151623905519E-001
9.0053678E-001	-8.047704214954496E-001
8.9956272E-001	-8.268805694145436E-001
8.9854550E-001	-8.428597611168165E-001
8.9754063E-001	-8.567387348868758E-001
8.9656323E-001	-8.672218500222577E-001
8.9555037E-001	-8.791930652223521E-001
8.9454818E-001	-8.888631602231829E-001
8.9353615E-001	-8.996940477043101E-001
8.9253891E-001	-9.055932786626106E-001
8.9154333E-001	-9.101713766447368E-001
8.9056736E-001	-9.172251336276496E-001
8.8956404E-001	-9.225239875312461E-001
8.8855541E-001	-9.267811428548569E-001
8.8755238E-001	-9.318757907797846E-001
8.8655484E-001	-9.372647818074462E-001
8.8556629E-001	-9.409438451855543E-001
8.8456500E-001	-9.449109662220714E-001
8.8353723E-001	-9.487215821734716E-001
8.8254446E-001	-9.537144089117646E-001
8.8153833E-001	-9.560766127995350E-001
8.8055122E-001	-9.602187158953797E-001
8.7956327E-001	-9.622181734173658E-001
8.7854689E-001	-9.671409450885289E-001
8.7756622E-001	-9.708184675934417E-001
8.7657279E-001	-9.732655688809846E-001
8.7557393E-001	-9.764752700510968E-001
8.7454969E-001	-9.797911484622261E-001
8.7355387E-001	-9.821968482186367E-001
8.7256277E-001	-9.843829749152029E-001
8.7159902E-001	-9.877348271095059E-001
8.7056661E-001	-9.906072937366002E-001
8.6955386E-001	-9.933238004644724E-001
8.6855620E-001	-9.973815591591917E-001
8.6758184E-001	-9.992107748985291E-001
8.6655152E-001	-1.001979796526332E+000
8.6556429E-001	-1.005830797263314E+000
8.6457628E-001	-1.006850109953010E+000
8.6355615E-001	-1.008447499014439E+000
8.6255735E-001	-1.011742688508498E+000
8.6156058E-001	-1.014285218074088E+000
8.6059976E-001	-1.018488368950777E+000
8.5956103E-001	-1.021044617518776E+000
8.5855585E-001	-1.023500202741059E+000
8.5756135E-001	-1.025368099411328E+000
8.5655874E-001	-1.027701234755410E+000
8.5555369E-001	-1.031289086056250E+000
8.5455942E-001	-1.033040318948526E+000
8.5356259E-001	-1.033947783625784E+000
8.5251611E-001	-1.038204381992333E+000
8.5159522E-001	-1.042366666305394E+000
8.5056233E-001	-1.043671402355859E+000
8.4957850E-001	-1.045812383294105E+000
8.4856230E-001	-1.048591996232664E+000
8.4756720E-001	-1.051482524722815E+000
8.4655935E-001	-1.052243503948880E+000
8.4557307E-001	-1.054929810679614E+000
8.4460598E-001	-1.056735161277978E+000
8.4357947E-001	-1.059732749333811E+000
8.4256601E-001	-1.063031111843880E+000
8.4158236E-001	-1.063973533403538E+000
8.4057724E-001	-1.066714380143411E+000
8.3956170E-001	-1.068752044397918E+000
8.3857554E-001	-1.071035303382413E+000
8.3758229E-001	-1.072200453322793E+000
8.3656263E-001	-1.076295868907534E+000
8.3557099E-001	-1.079848295077672E+000
8.3454084E-001	-1.082856432948674E+000
8.3355647E-001	-1.085489143927887E+000
8.3256888E-001	-1.085301922116837E+000
8.3158457E-001	-1.088748763211896E+000
8.3057272E-001	-1.089863018443186E+000
8.2955676E-001	-1.093737265509034E+000
8.2857686E-001	-1.094439982022675E+000
8.2756096E-001	-1.097211152004697E+000
8.2659692E-001	-1.099482144849990E+000
8.2561392E-001	-1.101123592919770E+000
8.2457125E-001	-1.104727384427351E+000
8.2355368E-001	-1.106773993414308E+000
8.2259953E-001	-1.110654627697336E+000
8.2154322E-001	-1.111983200638655E+000
8.2057321E-001	-1.114462695808871E+000
8.1954837E-001	-1.117688817179037E+000
8.1855810E-001	-1.118237722251148E+000
8.1756884E-001	-1.122926073873209E+000
8.1656379E-001	-1.128358025724683E+000
8.1554770E-001	-1.128892707534959E+000
8.1455845E-001	-1.129309033975000E+000
8.1353062E-001	-1.132738789853949E+000
8.1255615E-001	-1.134588158172036E+000
8.1157666E-001	-1.136267900466916E+000
8.1060910E-001	-1.142588467453603E+000
8.1005782E-001	-1.134592890739441E+000
8.1066424E-001	-6.988961158393550E-001
8.1166601E-001	-1.670251142212584E-001
8.1265324E-001	1.601407554408072E-001
8.1363994E-001	3.754384992644182E-001
8.1467414E-001	5.230751113138306E-001
8.1565207E-001	6.248356201685965E-001
8.1665522E-001	6.998066925443733E-001
8.1767005E-001	7.560470217011046E-001
8.1868368E-001	7.951223335435849E-001
8.1965739E-001	8.262125399584601E-001
8.2067448E-001	8.522897450667326E-001
8.2167226E-001	8.717693273598996E-001
8.2266676E-001	8.879728730147143E-001
8.2367164E-001	9.021037604866766E-001
8.2464838E-001	9.130302311128240E-001
8.2564098E-001	9.221465602620623E-001
8.2665813E-001	9.313970834223775E-001
8.2764900E-001	9.407743866451916E-001
8.2866043E-001	9.473344037930165E-001
8.2965171E-001	9.521919205370892E-001
8.3065438E-001	9.572961176228212E-001
8.3167350E-001	9.626251603476712E-001
8.3267707E-001	9.658052204176775E-001
8.3365566E-001	9.710833412181188E-001
8.3465821E-001	9.749915404245275E-001
8.3566844E-001	9.773728122106853E-001
8.3667642E-001	9.815732716686263E-001
8.3768076E-001	9.840278103947635E-001
8.3868170E-001	9.869898454182717E-001
8.3966494E-001	9.894533700620194E-001
8.4066552E-001	9.912470492223946E-001
8.4169143E-001	9.925432338689753E-001
8.4264332E-001	9.928943323385404E-001
8.4364837E-001	9.971472815506957E-001
8.4467107E-001	9.981352795536331E-001
8.4566599E-001	1.000458746217197E+000
8.4665835E-001	1.001165760060155E+000
8.4763670E-001	1.001900246677302E+000
8.4864676E-001	1.004772164237995E+000
8.4967756E-001	1.008944001255770E+000
8.5066396E-001	1.006781214123802E+000
8.5165101E-001	1.006923884774251E+000
8.5265326E-001	1.011037637055338E+000
8.5363173E-001	1.009944769346882E+000
8.5464305E-001	1.009937432801562E+000
8.5567421E-001	1.011346565662989E+000
8.5664856E-001	1.012540319520568E+000
8.5765833E-001	1.013274427606831E+000
8.5867286E-001	1.013293954336811E+000
8.5963780E-001	1.013116320595145E+000
8.6064565E-001	1.013257988314664E+000
8.6164182E-001	1.014747723937037E+000
8.6264843E-001	1.015973373005789E+000
8.6363721E-001	1.013825427533858E+000
8.6464328E-001	1.014778965049323E+000
8.6565334E-001	1.014940807492369E+000
8.6663443E-001	1.015841351925499E+000
8.6764783E-001	1.017059019973711E+000
8.6865014E-001	1.017278581236805E+000
8.6966312E-001	1.017489721791613E+000
8.7067544E-001	1.017549557197427E+000
8.7165385E-001	1.016313861745100E+000
8.7262410E-001	1.016596607139544E+000
8.7362897E-001	1.017283394208391E+000
8.7464178E-001	1.019180486496133E+000
8.7568390E-001	1.018811391563059E+000
8.7664670E-001	1.019016599282624E+000
8.7766802E-001	1.018319146190255E+000
8.7864476E-001	1.017513474759955E+000
8.7967217E-001	1.018888183352018E+000
8.8067830E-001	1.020393391139805E+000
8.8166499E-001	1.018909415851034E+000
8.8262784E-001	1.017981839780180E+000
8.8364786E-001	1.019035113871928E+000
8.8462406E-001	1.019994067235132E+000
8.8564575E-001	1.020584776583643E+000
8.8665342E-001	1.021845561245250E+000
8.8765216E-001	1.022210448255972E+000
8.8865125E-001	1.021706092378333E+000
8.8962251E-001	1.021212858044443E+000
8.9064676E-001	1.020952936365377E+000
8.9163882E-001	1.023084443579947E+000
8.9265043E-001	1.023388372527233E+000
8.9365274E-001	1.025072694494484E+000
8.9464772E-001	1.026191310025755E+000
8.9563948E-001	1.025746802488962E+000
8.9666235E-001	1.024520157112018E+000
8.9764613E-001	1.024761459272771E+000
8.9861155E-001	1.023804734047086E+000
8.9965034E-001	1.025042496725089E+000
9.0065867E-001	1.026168497796693E+000
9.0161371E-001	1.025690104294984E+000
9.0262252E-001	1.027494362762408E+000
9.0364701E-001	1.026162129619884E+000
9.0463322E-001	1.027879429153273E+000
9.0562159E-001	1.027469950210719E+000
9.0663856E-001	1.028771535286475E+000
9.0765113E-001	1.027403721896311E+000
9.0866619E-001	1.029349038584364E+000
9.0959322E-001	1.027887207223104E+000
9.1014397E-001	1.025221586227417E+000
9.0955138E-001	5.916919289674194E-001
9.0851271E-001	8.580031318181003E-002
9.0754437E-001	-2.164137647745915E-001
9.0653139E-001	-4.102515937605249E-001
9.0553671E-001	-5.376269562790768E-001
9.0452564E-001	-6.234114547260106E-001
9.0355217E-001	-6.851023026845482E-001
9.0253383E-001	-7.299022797184662E-001
9.0153712E-001	-7.637423751875740E-001
9.0054131E-001	-7.901081192410651E-001
8.9952856E-001	-8.123959432252574E-001
8.9853942E-001	-8.282887291473648E-001
8.9756680E-001	-8.423188151274275E-001
8.9656562E-001	-8.543659063159588E-001
8.9554083E-001	-8.654228020459414E-001
8.9455885E-001	-8.753638775605275E-001
8.9353502E-001	-8.859740931136102E-001
8.9254600E-001	-8.929029098815355E-001
8.9156276E-001	-8.985554785467684E-001
8.9054245E-001	-9.040743893322833E-001
8.8953525E-001	-9.097094607228997E-001
8.8855541E-001	-9.137390725211176E-001
8.8754857E-001	-9.205664219852103E-001
8.8656205E-001	-9.243796780291511E-001
8.8555002E-001	-9.301786238534557E-001
8.8456106E-001	-9.343393149061363E-001
8.8354802E-001	-9.375856181917044E-001
8.8254488E-001	-9.418232037375383E-001
8.8157690E-001	-9.451565381863887E-001
8.8055629E-001	-9.500182918272890E-001
8.7954909E-001	-9.513951194369099E-001
8.7855774E-001	-9.545317035064897E-001
8.7756985E-001	-9.597355477097942E-001
8.7654269E-001	-9.636560147110789E-001
8.7554181E-001	-9.649023029746271E-001
8.7455535E-001	-9.710231796424438E-001
8.7354922E-001	-9.734989218931212E-001
8.7255102E-001	-9.762482812317721E-001
8.7157595E-001	-9.797232446985085E-001
8.7054485E-001	-9.809260664300758E-001
8.6952537E-001	-9.848162807110281E-001
8.6854005E-001	-9.876738833263499E-001
8.6754346E-001	-9.888804466981034E-001
8.6655486E-001	-9.923579880139908E-001
8.6553919E-001	-9.941765927813133E-001
8.6455083E-001	-9.961081593193981E-001
8.6355531E-001	-1.000003109893030E+000
8.6256999E-001	-1.001860479306842E+000
8.6158663E-001	-1.005682219854656E+000
8.6056733E-001	-1.007567159003678E+000
8.5956120E-001	-1.010133047588170E+000
8.5855526E-001	-1.015010196198183E+000
8.5756820E-001	-1.016970921307806E+000
8.5652739E-001	-1.018064055902261E+000
8.5556877E-001	-1.020179615045585E+000
8.5456449E-001	-1.022691351154609E+000
8.5357320E-001	-1.024968244238858E+000
8.5258061E-001	-1.028971647337945E+000
8.5155958E-001	-1.035040311101408E+000
8.5054475E-001	-1.036561940382750E+000
8.4957182E-001	-1.038524779077203E+000
8.4855759E-001	-1.039487290092641E+000
8.4754193E-001	-1.043139929572738E+000
8.4656614E-001	-1.044505670252768E+000
8.4557861E-001	-1.046401121860567E+000
8.4455633E-001	-1.049207262280916E+000
8.4354419E-001	-1.050836466770201E+000
8.4255928E-001	-1.052518281050855E+000
8.4154969E-001	-1.056904907648756E+000
8.4058112E-001	-1.057476122760104E+000
8.3957660E-001	-1.060547329278451E+000
8.3855158E-001	-1.062116693084434E+000
8.3754814E-001	-1.065347101332412E+000
8.3655173E-001	-1.067674381141030E+000
8.3554304E-001	-1.071713607240884E+000
8.3457571E-001	-1.071637194086282E+000
8.3355278E-001	-1.072942899436590E+000
8.3253914E-001	-1.076029685843324E+000
8.3156610E-001	-1.081382529603108E+000
8.3056736E-001	-1.082764176858793E+000
8.2954484E-001	-1.084517983926661E+000
8.2855719E-001	-1.087157560305460E+000
8.2757348E-001	-1.088166347808307E+000
8.2655418E-001	-1.091722413276628E+000
8.2558882E-001	-1.091985543155008E+000
8.2455462E-001	-1.096810682573247E+000
8.2357597E-001	-1.098360395369429E+000
8.2256037E-001	-1.101414188742638E+000
8.2155937E-001	-1.103827914843958E+000
8.2055509E-001	-1.106160454038118E+000
8.1958950E-001	-1.108638216430940E+000
8.1858563E-001	-1.110054338247409E+000
8.1759185E-001	-1.113497328634057E+000
8.1656742E-001	-1.117679850612252E+000
8.1556904E-001	-1.120874669816756E+000
8.1454569E-001	-1.120580934195054E+000
8.1354004E-001	-1.123331342823803E+000
8.1255931E-001	-1.125504699949584E+000
8.1154823E-001	-1.127639961118497E+000
8.1060988E-001	-1.134093248673402E+000
8.1010747E-001	-1.124855552400863E+000
8.1067139E-001	-6.904474331784556E-001
8.1166708E-001	-1.590129894062147E-001
8.1263697E-001	1.678346682650363E-001
8.1364948E-001	3.827770766543450E-001
8.1463611E-001	5.291243425259982E-001
8.1566668E-001	6.320840691526741E-001
8.1665802E-001	7.062834072858131E-001
8.1766230E-001	7.627396527160415E-001
8.1864697E-001	8.032082133512528E-001
8.1969368E-001	8.341239152683175E-001
8.2065254E-001	8.589516209128019E-001
8.2165283E-001	8.780021499325024E-001
8.2265383E-001	8.955988890698408E-001
8.2367212E-001	9.081864090015479E-001
8.2466894E-001	9.189718186130982E-001
8.2567412E-001	9.281862982445310E-001
8.2663816E-001	9.369732968819662E-001
8.2765388E-001	9.445277123401574E-001
8.2862788E-001	9.499697274942402E-001
8.2966322E-001	9.557442536784535E-001
8.3065951E-001	9.623350652659077E-001
8.3167964E-001	9.670446641846659E-001
8.3262897E-001	9.708197532325169E-001
8.3363575E-001	9.753140103485878E-001
8.3468860E-001	9.781896150153599E-001
8.3566082E-001	9.817446132914949E-001
8.3666146E-001	9.861115868099897E-001
8.3765090E-001	9.874225663435148E-001
8.3865792E-001	9.893812520636479E-001
8.3965027E-001	9.921045849720658E-001
8.4066343E-001	9.947733845975704E-001
8.4164679E-001	9.966917351509146E-001
8.4266919E-001	9.981066768782014E-001
8.4363633E-001	1.000633816545207E+000
8.4465623E-001	1.001525928162863E+000
8.4566498E-001	1.003977207570443E+000
8.4665734E-001	1.005304119860138E+000
8.4763300E-001	1.005479183875853E+000
8.4863847E-001	1.008439105624952E+000
8.4965420E-001	1.010601861402392E+000
8.5064250E-001	1.009511446269849E+000
8.5165524E-001	1.010675087260706E+000
8.5265875E-001	1.015358241947578E+000
8.5363787E-001	1.015864724914236E+000
8.5462105E-001	1.014992675123114E+000
8.5566258E-001	1.015388390463265E+000
8.5665756E-001	1.015587220589320E+000
8.5765451E-001	1.016348842117524E+000
8.5864586E-001	1.016089040992991E+000
8.5964727E-001	1.016647505160012E+000
8.6068022E-001	1.017094006141031E+000
8.6163592E-001	1.018149504127606E+000
8.6266011E-001	1.020159580951765E+000
8.6365080E-001	1.018661258328300E+000
8.6465061E-001	1.020767849145667E+000
8.6563230E-001	1.020940692991854E+000
8.6665720E-001	1.019395726629432E+000
8.6765128E-001	1.019502926307425E+000
8.6865741E-001	1.019090787611084E+000
8.6964792E-001	1.019233466539949E+000
8.7063211E-001	1.020253890090522E+000
8.7164837E-001	1.019934106618170E+000
8.7264377E-001	1.021997144549260E+000
8.7362391E-001	1.022089513536130E+000
8.7463474E-001	1.022176494201027E+000
8.7564451E-001	1.022512205462491E+000
8.7663740E-001	1.021156560112209E+000
8.7767386E-001	1.022840955501630E+000
8.7864035E-001	1.023251990477249E+000
8.7964845E-001	1.021715534747476E+000
8.8064736E-001	1.023178293887113E+000
8.8165081E-001	1.023375008462203E+000
8.8263303E-001	1.024600743212638E+000
8.8364804E-001	1.023590419337980E+000
8.8463104E-001	1.022466562274436E+000
8.8564223E-001	1.023769637673269E+000
8.8661909E-001	1.023519394505360E+000
8.8764167E-001	1.023711354575223E+000
8.8862371E-001	1.024501990526911E+000
8.8962662E-001	1.024729051937662E+000
8.9061612E-001	1.025377231443095E+000
8.9164007E-001	1.026398161012267E+000
8.9262187E-001	1.026202403112418E+000
8.9364111E-001	1.028072940935608E+000
8.9465111E-001	1.029186230877205E+000
8.9564079E-001	1.028108029626315E+000
8.9663506E-001	1.028804396900037E+000
8.9765948E-001	1.028838837105365E+000
8.9860922E-001	1.029256303380759E+000
8.9962387E-001	1.028232652900947E+000
9.0061581E-001	1.029125259050893E+000
9.0162539E-001	1.029545263387263E+000
9.0263134E-001	1.029713424440061E+000
9.0361708E-001	1.029539502432783E+000
9.0461802E-001	1.029723993606039E+000
9.0564805E-001	1.031020124028952E+000
9.0662205E-001	1.031271087109214E+000
9.0763664E-001	1.032827090471979E+000
9.0862596E-001	1.032626643156013E+000
9.0957737E-001	1.032201566966258E+000
9.1012484E-001	1.034940679868061E+000