Ewe/V	<I>/mA	
8.1361049E-001	-1.047779917716980E+000
8.1411582E-001	-6.931898082020105E-001
8.1514835E-001	-3.877983293668512E-001
8.1616896E-001	-2.562336819591344E-001
8.1749839E-001	-1.670718843117358E-001
8.1877875E-001	-1.091947967134823E-001
8.1976438E-001	-8.088528192429623E-002
8.2077259E-001	-5.804469363108544E-002
8.2177240E-001	-4.099672209229993E-002
8.2273424E-001	-2.637142983601526E-002
8.2377368E-001	-1.407583241719592E-002
8.2539701E-001	7.363274956703567E-003
8.2638264E-001	1.524576265580473E-002
8.2738984E-001	2.297592251086433E-002
8.2838726E-001	2.886386287260667E-002
8.2936376E-001	3.488098051726671E-002
8.3036417E-001	4.008724632310784E-002
8.3136755E-001	4.457574384287016E-002
8.3239734E-001	4.897048013474531E-002
8.3338058E-001	5.254521859050898E-002
8.3436757E-001	5.648738882262942E-002
8.3534735E-001	5.944903354436426E-002
8.3636451E-001	6.263716597351482E-002
8.3737302E-001	6.544107841155322E-002
8.3837891E-001	6.836401025281713E-002
8.3938318E-001	7.056876779016519E-002
8.4037924E-001	7.276797277369999E-002
8.4134459E-001	7.485807690493468E-002
8.4237182E-001	7.710509191922577E-002
8.4334928E-001	7.911139138525825E-002
8.4433585E-001	8.076660157864457E-002
8.4535342E-001	8.269612673946014E-002
8.4637547E-001	8.422815599651234E-002
8.4734213E-001	8.569881904663312E-002
8.4835196E-001	8.732139182932364E-002
8.4936470E-001	8.892313275417241E-002
8.5034561E-001	8.980604775974310E-002
8.5134524E-001	9.130737306205239E-002
8.5233122E-001	9.243929480995861E-002
8.5333055E-001	9.338980619105719E-002
8.5434180E-001	9.477644186052991E-002
8.5535216E-001	9.630948281846949E-002
8.5632825E-001	9.691246284206390E-002
8.5732150E-001	9.778114699724050E-002
8.5833460E-001	9.872934813783751E-002
8.5935104E-001	9.975798843704453E-002
8.6034220E-001	1.003619118015213E-001
8.6136842E-001	1.014487229770530E-001
8.6233854E-001	1.024262162822265E-001
8.6332858E-001	1.031029609859820E-001
8.6434519E-001	1.038375158828722E-001
8.6534888E-001	1.045674887761751E-001
8.6635303E-001	1.051204020364418E-001
8.6734831E-001	1.058396639267883E-001
8.6833304E-001	1.062938459734952E-001
8.6965472E-001	1.043985586572023E-001
8.7094712E-001	1.025006668297228E-001
8.7192988E-001	1.029464747170335E-001
8.7292272E-001	1.034663642101261E-001
8.7393498E-001	1.037003819278821E-001
8.7493932E-001	1.044506199002541E-001
8.7597263E-001	1.050028889267532E-001
8.7694967E-001	1.055453821667847E-001
8.7796539E-001	1.059432126995592E-001
8.7894022E-001	1.064503315525749E-001
8.7994361E-001	1.070845650715960E-001
8.8094240E-001	1.071301795956159E-001
8.8193154E-001	1.075783132885892E-001
8.8292682E-001	1.081883586184293E-001
8.8393259E-001	1.084008540406267E-001
8.8491923E-001	1.087826595089780E-001
8.8593513E-001	1.090496564111504E-001
8.8692182E-001	1.098429176921922E-001
8.8792908E-001	1.101726140068089E-001
8.8896155E-001	1.102862105256430E-001
8.8994050E-001	1.108064730996612E-001
8.9094377E-001	1.113365570911105E-001
8.9193106E-001	1.115430679379242E-001
8.9293307E-001	1.121138399466877E-001
8.9390737E-001	1.123798834202800E-001
8.9492345E-001	1.121978923781882E-001
8.9591503E-001	1.133050675227967E-001
8.9692986E-001	1.131440077873842E-001
8.9794689E-001	1.136098190693671E-001
8.9892513E-001	1.139960693091984E-001
8.9992362E-001	1.141879367814571E-001
9.0093434E-001	1.146726019301075E-001
9.0191531E-001	1.144035552559353E-001
9.0292537E-001	1.150309415534139E-001
9.0392655E-001	1.155230055597658E-001
9.0492016E-001	1.154403339347079E-001
9.0589833E-001	1.162781008450247E-001
9.0692848E-001	1.161131365224721E-001
9.0793794E-001	1.161968482796245E-001
9.0893185E-001	1.164269568743532E-001
9.0970296E-001	1.167010493886964E-001
9.1015548E-001	1.151716608021938E-001
9.0949082E-001	2.855920562332268E-002
9.0852052E-001	-9.421239503016869E-003
9.0752202E-001	-2.415363368345425E-002
9.0623671E-001	-3.895852300243119E-002
9.0494895E-001	-5.105224397913033E-002
9.0392977E-001	-5.606064735911798E-002
9.0290797E-001	-6.050701856751109E-002
9.0190887E-001	-6.454402880950111E-002
9.0092880E-001	-6.775117523243823E-002
8.9991617E-001	-7.093302056158879E-002
8.9893425E-001	-7.392503402230372E-002
8.9794666E-001	-7.613594820550465E-002
8.9693469E-001	-7.862014520947880E-002
8.9592254E-001	-8.044608433179024E-002
8.9495283E-001	-8.266825457448479E-002
8.9394945E-001	-8.462574949758417E-002
8.9292294E-001	-8.628398743113086E-002
8.9193267E-001	-8.786987153709758E-002
8.9094275E-001	-8.925138446674888E-002
8.8995731E-001	-9.101585165976933E-002
8.8894159E-001	-9.259037213848442E-002
8.8793647E-001	-9.364329784660219E-002
8.8692844E-001	-9.535196064798912E-002
8.8592494E-001	-9.631955966836259E-002
8.8494337E-001	-9.720604858982039E-002
8.8395756E-001	-9.857916526703425E-002
8.8294637E-001	-9.969874400714424E-002
8.8196331E-001	-1.006056930248933E-001
8.8095421E-001	-1.015516543002044E-001
8.7994462E-001	-1.029263994725491E-001
8.7895346E-001	-1.035830651202960E-001
8.7794787E-001	-1.046909595391263E-001
8.7694860E-001	-1.057933539181635E-001
8.7595797E-001	-1.063697959675836E-001
8.7464482E-001	-1.054124934391845E-001
8.7333292E-001	-1.029816388359506E-001
8.7231898E-001	-1.034184864342764E-001
8.7131935E-001	-1.043661568589780E-001
8.7033975E-001	-1.048381935494639E-001
8.6931479E-001	-1.058346875425846E-001
8.6832708E-001	-1.062606094508534E-001
8.6734128E-001	-1.069521412632810E-001
8.6631542E-001	-1.078931956758931E-001
8.6533237E-001	-1.086578837733854E-001
8.6431265E-001	-1.092758249250000E-001
8.6333197E-001	-1.098360870792356E-001
8.6233908E-001	-1.104051609937515E-001
8.6132538E-001	-1.110641594148344E-001
8.6032289E-001	-1.121229676816267E-001
8.5931402E-001	-1.125152368201978E-001
8.5833001E-001	-1.132354135280129E-001
8.5733867E-001	-1.131653382132458E-001
8.5633719E-001	-1.140296463337209E-001
8.5534388E-001	-1.146916140698725E-001
8.5434705E-001	-1.153388518184699E-001
8.5333860E-001	-1.157634082181311E-001
8.5232615E-001	-1.164306844067239E-001
8.5134220E-001	-1.170888880992103E-001
8.5032785E-001	-1.175534273325289E-001
8.4933662E-001	-1.183117632064278E-001
8.4833008E-001	-1.192457194578036E-001
8.4731293E-001	-1.197033994313743E-001
8.4634888E-001	-1.199894662153111E-001
8.4534609E-001	-1.205883142193429E-001
8.4432477E-001	-1.209880530067426E-001
8.4334016E-001	-1.216576807718310E-001
8.4235680E-001	-1.226233053021133E-001
8.4133422E-001	-1.223929271067457E-001
8.4033972E-001	-1.231544519326195E-001
8.3936220E-001	-1.234117380205403E-001
8.3834487E-001	-1.241098021295062E-001
8.3735412E-001	-1.247927225194871E-001
8.3632618E-001	-1.252471361895675E-001
8.3535796E-001	-1.254996082366060E-001
8.3432603E-001	-1.265010827186480E-001
8.3334339E-001	-1.270482198645668E-001
8.3233464E-001	-1.272883592690861E-001
8.3135104E-001	-1.279221309900832E-001
8.3034950E-001	-1.282296019813254E-001
8.2935619E-001	-1.288134620214496E-001
8.2833451E-001	-1.292693648590799E-001
8.2734621E-001	-1.297345361647144E-001
8.2633471E-001	-1.302109089921468E-001
8.2533485E-001	-1.306309801250416E-001
8.2436115E-001	-1.313092304324663E-001
8.2335186E-001	-1.319870656977100E-001
8.2235229E-001	-1.320968587641371E-001
8.2134646E-001	-1.326667393592225E-001
8.2034707E-001	-1.326872548605829E-001
8.1935388E-001	-1.333987136302452E-001
8.1833941E-001	-1.342017466236869E-001
8.1734616E-001	-1.346710723721318E-001
8.1633586E-001	-1.354649643310242E-001
8.1532896E-001	-1.354113550753226E-001
8.1435567E-001	-1.357764333003655E-001
8.1331730E-001	-1.363145269763966E-001
8.1235462E-001	-1.371025840613855E-001
8.1135041E-001	-1.373201913509748E-001
8.1049490E-001	-1.380537659861152E-001
8.1006926E-001	-1.338803847630818E-001
8.1066501E-001	-4.294080369793130E-002
8.1167322E-001	-1.148213534516239E-003
8.1265157E-001	1.600889098308808E-002
8.1392246E-001	3.089064697398691E-002
8.1526995E-001	4.492477822997087E-002
8.1626427E-001	5.053764821409645E-002
8.1730056E-001	5.616785372883359E-002
8.1831038E-001	5.989956902340049E-002
8.1927598E-001	6.368046013327922E-002
8.2028300E-001	6.682904160374570E-002
8.2124859E-001	6.981057784934031E-002
8.2226712E-001	7.263238798757965E-002
8.2326692E-001	7.533696782775268E-002
8.2429302E-001	7.759336334722178E-002
8.2529277E-001	7.964942083452597E-002
8.2626975E-001	8.145243082092046E-002
8.2727343E-001	8.384583160561887E-002
8.2826036E-001	8.552028908808201E-002
8.2925487E-001	8.678852840913104E-002
8.3026880E-001	8.899186025546113E-002
8.3128679E-001	9.007893137944212E-002
8.3227432E-001	9.114675636886149E-002
8.3324564E-001	9.281693755959441E-002
8.3425611E-001	9.428119416245129E-002
8.3525735E-001	9.506421758689809E-002
8.3625555E-001	9.651628681631008E-002
8.3726233E-001	9.752596983755091E-002
8.3827132E-001	9.865672536263270E-002
8.3924949E-001	9.939934418502250E-002
8.4026372E-001	1.008040055253161E-001
8.4125799E-001	1.017076934308370E-001
8.4224677E-001	1.023211333279808E-001
8.4323788E-001	1.032114043590373E-001
8.4423470E-001	1.042405497431412E-001
8.4526944E-001	1.049255377750979E-001
8.4621775E-001	1.057142814862786E-001
8.4722567E-001	1.064727560755001E-001
8.4823668E-001	1.070273104123767E-001
8.4953338E-001	1.049382730697592E-001
8.5088253E-001	1.030041112357544E-001
8.5185969E-001	1.035071959443115E-001
8.5283965E-001	1.041488623315541E-001
8.5382950E-001	1.046445161897549E-001
8.5485888E-001	1.050738645200104E-001
8.5586154E-001	1.056234111871437E-001
8.5686457E-001	1.058346424941667E-001
8.5786223E-001	1.065881347145745E-001
8.5885394E-001	1.073031461004310E-001
8.5983932E-001	1.076232840617501E-001
8.6085242E-001	1.084708626880599E-001
8.6185998E-001	1.087213437659316E-001
8.6283302E-001	1.090265734086709E-001
8.6385822E-001	1.093534397271770E-001
8.6484826E-001	1.097458182420168E-001
8.6586171E-001	1.107923620449449E-001
8.6686486E-001	1.108190526116495E-001
8.6785835E-001	1.105989732400138E-001
8.6885130E-001	1.113321375343261E-001
8.6985821E-001	1.115312170996152E-001
8.7084860E-001	1.120223438677685E-001
8.7183565E-001	1.122644485181408E-001
8.7283593E-001	1.124081207025380E-001
8.7381470E-001	1.134824342853220E-001
8.7482870E-001	1.138446306706304E-001
8.7585169E-001	1.139132256654123E-001
8.7682861E-001	1.140184951908976E-001
8.7782753E-001	1.145563516075973E-001
8.7885827E-001	1.148146845710777E-001
8.7984705E-001	1.147534156528611E-001
8.8084430E-001	1.152498016340866E-001
8.8182592E-001	1.153600703131543E-001
8.8283539E-001	1.161338672455814E-001
8.8384765E-001	1.162293665628473E-001
8.8481390E-001	1.160829684145199E-001
8.8584203E-001	1.163423368362366E-001
8.8681018E-001	1.163825363748603E-001
8.8784760E-001	1.172852328012663E-001
8.8886631E-001	1.171931836374650E-001
8.8981402E-001	1.175937671041875E-001
8.9082754E-001	1.179704022835248E-001
8.9181107E-001	1.179876517573444E-001
8.9282876E-001	1.185650528857001E-001
8.9384460E-001	1.187173293047872E-001
8.9481080E-001	1.185640320181848E-001
8.9583826E-001	1.189546025254664E-001
8.9683682E-001	1.193238147706892E-001
8.9782935E-001	1.194788624911940E-001
8.9882654E-001	1.191411150308950E-001
8.9983922E-001	1.199990555954482E-001
9.0083545E-001	1.202700536318675E-001
9.0181863E-001	1.202352327225661E-001
9.0280384E-001	1.206325491096960E-001
9.0382606E-001	1.207807667863869E-001
9.0483844E-001	1.208172787187827E-001
9.0583307E-001	1.211435390912272E-001
9.0682900E-001	1.213832755090185E-001
9.0782356E-001	1.215428660658224E-001
9.0883267E-001	1.213943847213632E-001
9.0969169E-001	1.216923811783396E-001
9.1012484E-001	1.206143115247998E-001
9.0951002E-001	3.339209140675081E-002
9.0851378E-001	-4.712174591397202E-003
9.0749508E-001	-1.990489597665135E-002
9.0627295E-001	-3.538237362065255E-002
9.0493357E-001	-4.677728648056040E-002
9.0389436E-001	-5.198665534111613E-002
9.0289158E-001	-5.639054939254273E-002
9.0190047E-001	-6.062134571752886E-002
9.0090245E-001	-6.394672439502613E-002
8.9993113E-001	-6.702894821797534E-002
8.9892173E-001	-6.966608984361367E-002
8.9791048E-001	-7.216835224621554E-002
8.9695245E-001	-7.492677708742757E-002
8.9591128E-001	-7.713390155522916E-002
8.9492738E-001	-7.882758431757475E-002
8.9392841E-001	-8.120848041803130E-002
8.9295226E-001	-8.284403984779798E-002
8.9190084E-001	-8.457583193322279E-002
8.9091629E-001	-8.616496801065920E-002
8.8992715E-001	-8.762670675706508E-002
8.8891613E-001	-8.898888906050040E-002
8.8792628E-001	-9.044984738445944E-002
8.8694370E-001	-9.179983722666907E-002
8.8594979E-001	-9.320126817975649E-002
8.8493997E-001	-9.436319508003388E-002
8.8392818E-001	-9.497663602922812E-002
8.8292044E-001	-9.665848563977097E-002
8.8193750E-001	-9.757025570919106E-002
8.8092977E-001	-9.888862535633414E-002
8.7993783E-001	-9.970154344207716E-002
8.7894225E-001	-1.008434900324101E-001
8.7794340E-001	-1.020853665346903E-001
8.7692004E-001	-1.028831267522901E-001
8.7595522E-001	-1.036847893631566E-001
8.7493181E-001	-1.045879464493027E-001
8.7394708E-001	-1.051962723679563E-001
8.7294686E-001	-1.061382026377098E-001
8.7164116E-001	-1.059324735113316E-001
8.7029785E-001	-1.021071042762038E-001
8.6933947E-001	-1.028443025425081E-001
8.6831105E-001	-1.041710212550777E-001
8.6733991E-001	-1.045276921035516E-001
8.6632049E-001	-1.053697440980215E-001
8.6534238E-001	-1.058140793401332E-001
8.6431223E-001	-1.061485338162769E-001
8.6331987E-001	-1.075546913607806E-001
8.6233956E-001	-1.081506559901215E-001
8.6134458E-001	-1.089792995265238E-001
8.6033970E-001	-1.096033605560959E-001
8.5931200E-001	-1.099410457364105E-001
8.5833502E-001	-1.108862755095792E-001
8.5733366E-001	-1.113328385270305E-001
8.5634542E-001	-1.118911957299266E-001
8.5531616E-001	-1.124115670962190E-001
8.5434097E-001	-1.128921300276285E-001
8.5333437E-001	-1.136965405506385E-001
8.5233593E-001	-1.145837027752008E-001
8.5134029E-001	-1.148667460721402E-001
8.5033411E-001	-1.153263771492574E-001
8.4932876E-001	-1.163421803050573E-001
8.4832072E-001	-1.165539586951059E-001
8.4732640E-001	-1.169324789058279E-001
8.4633404E-001	-1.178705813018261E-001
8.4532261E-001	-1.181196086626086E-001
8.4434307E-001	-1.192091958803552E-001
8.4331626E-001	-1.195313250128595E-001
8.4234715E-001	-1.200274484818460E-001
8.4135509E-001	-1.206522639668373E-001
8.4035158E-001	-1.210849455523269E-001
8.3935314E-001	-1.214166535237045E-001
8.3835328E-001	-1.219034804100240E-001
8.3735412E-001	-1.225189972082497E-001
8.3633721E-001	-1.232219815978572E-001
8.3533692E-001	-1.237671019819878E-001
8.3434623E-001	-1.240587939025346E-001
8.3335066E-001	-1.247993537086856E-001
8.3237857E-001	-1.251294797769302E-001
8.3135641E-001	-1.257909720384136E-001
8.3036017E-001	-1.266640724131353E-001
8.2933152E-001	-1.268432299882453E-001
8.2836872E-001	-1.269231017472017E-001
8.2734907E-001	-1.281304339683860E-001
8.2635927E-001	-1.283297951126259E-001
8.2536203E-001	-1.284502173463502E-001
8.2434165E-001	-1.291651286150297E-001
8.2335210E-001	-1.301206623686959E-001
8.2235497E-001	-1.302961228001449E-001
8.2134986E-001	-1.309738189706371E-001
8.2034874E-001	-1.314825893345259E-001
8.1935668E-001	-1.315748141906048E-001
8.1837195E-001	-1.321274745967926E-001
8.1735742E-001	-1.329274003014518E-001
8.1633770E-001	-1.337938508260303E-001
8.1533939E-001	-1.334678235429302E-001
8.1434274E-001	-1.340291003903578E-001
8.1335682E-001	-1.347597689988705E-001
8.1234109E-001	-1.350823041500041E-001
8.1136459E-001	-1.357684097840774E-001
8.1048292E-001	-1.364835024707851E-001
8.1012273E-001	-1.341529677311581E-001
8.1064767E-001	-4.128474368962405E-002
8.1163901E-001	6.253368879293188E-004
8.1266475E-001	1.718353874188051E-002
8.1363857E-001	2.840122364082004E-002
8.1466621E-001	3.649956065109350E-002
8.1564736E-001	4.287135971848055E-002
8.1664807E-001	4.878233245108299E-002
8.1764883E-001	5.331676706878707E-002
8.1867081E-001	5.707851269592834E-002
8.1965703E-001	6.026791564740819E-002
8.2063955E-001	6.360459543281682E-002
8.2166827E-001	6.622330753857059E-002
8.2264215E-001	6.922279543208854E-002
8.2363647E-001	7.169675699400735E-002
8.2465178E-001	7.381362423162777E-002
8.2566017E-001	7.577721646090041E-002
8.2666445E-001	7.751279914993114E-002
8.2763058E-001	7.983889204894790E-002
8.2862055E-001	8.126963521526376E-002
8.2964301E-001	8.278901756879120E-002
8.3065408E-001	8.482795091414919E-002
8.3166468E-001	8.594731908050129E-002
8.3260959E-001	8.719780927317022E-002
8.3362693E-001	8.878814435943433E-002
8.3463526E-001	8.976560746561058E-002
8.3564627E-001	9.091785852797285E-002
8.3668822E-001	9.261230877773063E-002
8.3764166E-001	9.338985794844734E-002
8.3866203E-001	9.428111133510564E-002
8.3966190E-001	9.498954253892067E-002
8.4064215E-001	9.611021362555472E-002
8.4166294E-001	9.743903771353257E-002
8.4265709E-001	9.797168278169854E-002
8.4362763E-001	9.842663138160046E-002
8.4465873E-001	9.940357583885440E-002
8.4565061E-001	1.001924376727805E-001
8.4662825E-001	1.010547973629499E-001
8.4764016E-001	1.013683204504630E-001
8.4863126E-001	1.022400807727266E-001
8.4963483E-001	1.029498534173603E-001
8.5063827E-001	1.034294085542640E-001
8.5163951E-001	1.044602068313574E-001
8.5262871E-001	1.050290504849896E-001
8.5361916E-001	1.057607267500349E-001
8.5463411E-001	1.057140959461255E-001
8.5563821E-001	1.066956100985406E-001
8.5662347E-001	1.069669184205986E-001
8.5761034E-001	1.075362222510630E-001
8.5861868E-001	1.083215401611394E-001
8.5963458E-001	1.086488501858657E-001
8.6062592E-001	1.094912199563806E-001
8.6163008E-001	1.096912171450206E-001
8.6261791E-001	1.102350093596791E-001
8.6361802E-001	1.102685364894571E-001
8.6466092E-001	1.109030202755492E-001
8.6565852E-001	1.111248278541975E-001
8.6662936E-001	1.119133103638887E-001
8.6762547E-001	1.117969602691353E-001
8.6862892E-001	1.123818331915474E-001
8.6961448E-001	1.125639102559675E-001
8.7060899E-001	1.129555273283689E-001
8.7165189E-001	1.133567049444002E-001
8.7262726E-001	1.138908773384708E-001
8.7363499E-001	1.143440395697125E-001
8.7463856E-001	1.147546051070092E-001
8.7563884E-001	1.151057949841579E-001
8.7662470E-001	1.147293051454297E-001
8.7763458E-001	1.154358260747463E-001
8.7861580E-001	1.158922266008131E-001
8.7964851E-001	1.158103620185067E-001
8.8063866E-001	1.161257515109524E-001
8.8161337E-001	1.165789830222450E-001
8.8263232E-001	1.168653110421642E-001
8.8361782E-001	1.173106694283585E-001
8.8462549E-001	1.170873235635186E-001
8.8563436E-001	1.175427616021985E-001
8.8661498E-001	1.178591890191592E-001
8.8763577E-001	1.180753395547747E-001
8.8860881E-001	1.183581553503037E-001
8.8960290E-001	1.186595433564102E-001
8.9061093E-001	1.187607369523638E-001
8.9161223E-001	1.188983788058440E-001
8.9258826E-001	1.188864537894174E-001
8.9362788E-001	1.195610973957418E-001
8.9461839E-001	1.198319641321351E-001
8.9561379E-001	1.200250985997695E-001
8.9659107E-001	1.198170866506796E-001
8.9762145E-001	1.198308484766772E-001
8.9859110E-001	1.200757845373894E-001
8.9962059E-001	1.207935178341966E-001
9.0061510E-001	1.211528991418025E-001
9.0159732E-001	1.208283332245499E-001
9.0262198E-001	1.215088693425059E-001
9.0361470E-001	1.213528975257994E-001
9.0459496E-001	1.216488200826227E-001
9.0561950E-001	1.216637152074656E-001
9.0661687E-001	1.217354880300936E-001
9.0760070E-001	1.221210722190635E-001
9.0860462E-001	1.222861849668401E-001
9.0954661E-001	1.227223386716410E-001
9.1005993E-001	1.207423199500356E-001
9.0949875E-001	3.359093954134540E-002
9.0850335E-001	-3.981082321034703E-003
9.0751362E-001	-1.921879358727621E-002
9.0650290E-001	-2.927158016676975E-002
9.0549624E-001	-3.656466693738117E-002
9.0448433E-001	-4.221352871886830E-002
9.0351087E-001	-4.702778518441374E-002
9.0248823E-001	-5.166854247174874E-002
9.0151292E-001	-5.461327534134464E-002
9.0049595E-001	-5.836492244809599E-002
8.9949620E-001	-6.145273827671699E-002
8.9847457E-001	-6.401480902503753E-002
8.9749646E-001	-6.687005717928207E-002
8.9647853E-001	-6.860642356763580E-002
8.9549947E-001	-7.102330187680572E-002
8.9448965E-001	-7.255823168627631E-002
8.9350188E-001	-7.479751319640271E-002
8.9249879E-001	-7.643824833859188E-002
8.9147836E-001	-7.808916306088626E-002
8.9051080E-001	-7.995594137658668E-002
8.8949305E-001	-8.145384637949360E-002
8.8851541E-001	-8.239401268979729E-002
8.8751638E-001	-8.391498826030247E-002
8.8651437E-001	-8.563848738386126E-002
8.8550472E-001	-8.687276770878150E-002
8.8451391E-001	-8.807515735841465E-002
8.8352430E-001	-8.869488456251995E-002
8.8250589E-001	-9.017063487597077E-002
8.8149792E-001	-9.121474440002608E-002
8.8052446E-001	-9.210930080842911E-002
8.7952101E-001	-9.337953710928582E-002
8.7850493E-001	-9.405990918511864E-002
8.7750924E-001	-9.517604495721610E-002
8.7649179E-001	-9.632711723032927E-002
8.7550962E-001	-9.690289427008891E-002
8.7454885E-001	-9.753483280332542E-002
8.7349141E-001	-9.895499826719337E-002
8.7251872E-001	-9.948357368853877E-002
8.7151253E-001	-1.005437479664879E-001
8.7054789E-001	-1.012685498809098E-001
8.6949748E-001	-1.021159529616986E-001
8.6853218E-001	-1.031346673973728E-001
8.6751682E-001	-1.034361798902629E-001
8.6652064E-001	-1.044072208201721E-001
8.6552781E-001	-1.050015195893743E-001
8.6454356E-001	-1.058008326907400E-001
8.6353064E-001	-1.063869605703214E-001
8.6253256E-001	-1.073589024168473E-001
8.6151528E-001	-1.074429336003955E-001
8.6053109E-001	-1.088988084114995E-001
8.5951740E-001	-1.090787919238205E-001
8.5852903E-001	-1.100470207769561E-001
8.5752326E-001	-1.110866330736484E-001
8.5650337E-001	-1.108064722200786E-001
8.5555035E-001	-1.117387505386166E-001
8.5450947E-001	-1.124627974091301E-001
8.5352439E-001	-1.130786873055276E-001
8.5254550E-001	-1.137933040865593E-001
8.5152322E-001	-1.140279644513846E-001
8.5054338E-001	-1.144667484245637E-001
8.4953386E-001	-1.155461598946542E-001
8.4855211E-001	-1.160431414394192E-001
8.4754413E-001	-1.167345317425545E-001
8.4657043E-001	-1.167501411573204E-001
8.4556043E-001	-1.174541081267377E-001
8.4454620E-001	-1.182489655044476E-001
8.4355533E-001	-1.187003596547851E-001
8.4253693E-001	-1.193811002325405E-001
8.4154755E-001	-1.197670700752902E-001
8.4056026E-001	-1.200672728699390E-001
8.3955050E-001	-1.210763610692490E-001
8.3855408E-001	-1.214098223760998E-001
8.3754933E-001	-1.217046726529514E-001
8.3656847E-001	-1.224991268547320E-001
8.3556449E-001	-1.227274037621640E-001
8.3456290E-001	-1.235136426812793E-001
8.3355415E-001	-1.241732740912727E-001
8.3255339E-001	-1.246162086759730E-001
8.3154339E-001	-1.250270954333246E-001
8.3055753E-001	-1.253771198982436E-001
8.2956481E-001	-1.261537507072915E-001
8.2854521E-001	-1.268684462368217E-001
8.2757294E-001	-1.273906373094315E-001
8.2657295E-001	-1.278035204202216E-001
8.2556367E-001	-1.284136153516116E-001
8.2452726E-001	-1.286991824809873E-001
8.2355934E-001	-1.294923920391340E-001
8.2257062E-001	-1.294456174493663E-001
8.2157034E-001	-1.300228234311496E-001
8.2055390E-001	-1.304056511984929E-001
8.1954336E-001	-1.311538356045879E-001
8.1855762E-001	-1.314817952440562E-001
8.1754786E-001	-1.323371930737740E-001
8.1655782E-001	-1.332348335568829E-001
8.1553239E-001	-1.330376514578582E-001
8.1451875E-001	-1.332287534691954E-001
8.1355000E-001	-1.336825814408560E-001
8.1253880E-001	-1.345314103075205E-001
8.1153679E-001	-1.346435424940731E-001
8.1059635E-001	-1.359630682660887E-001
8.1007689E-001	-1.336625635623931E-001
8.1066084E-001	-4.077310476967604E-002
8.1167269E-001	1.133501287066157E-003
8.1265455E-001	1.792048660637295E-002
8.1395906E-001	3.453351977301966E-002
8.1525862E-001	4.666719007461018E-002
8.1625330E-001	5.269491814801253E-002
8.1724900E-001	5.789571138167826E-002
8.1827426E-001	6.179753475374106E-002
8.1926137E-001	6.563887494202292E-002
8.2026291E-001	6.834386421919414E-002
8.2125539E-001	7.162362538899014E-002
8.2226813E-001	7.474184723536437E-002
8.2324439E-001	7.688403874635681E-002
8.2425213E-001	7.951485448413403E-002
8.2526761E-001	8.138114325184775E-002
8.2623297E-001	8.342723312994682E-002
8.2723790E-001	8.585749351013394E-002
8.2825172E-001	8.708868182643706E-002
8.2925254E-001	8.894382806115431E-002
8.3023924E-001	9.024130160644317E-002
8.3124226E-001	9.184667820766279E-002
8.3222818E-001	9.327020540109135E-002
8.3324957E-001	9.461865342153208E-002
8.3422869E-001	9.574323191514436E-002
8.3524585E-001	9.731304163492660E-002
8.3624697E-001	9.823188766906099E-002
8.3725017E-001	9.929648859219414E-002
8.3824033E-001	1.003532227025268E-001
8.3925354E-001	1.011229496863151E-001
8.4023976E-001	1.022437392665001E-001
8.4123254E-001	1.029506670138631E-001
8.4225363E-001	1.037360727097148E-001
8.4323132E-001	1.048281974400638E-001
8.4423447E-001	1.061803637480278E-001
8.4524089E-001	1.061371679555758E-001
8.4652954E-001	1.061313793021772E-001
8.4783709E-001	1.024118761566504E-001
8.4884393E-001	1.031030942168498E-001
8.4985328E-001	1.039189107336655E-001
8.5085559E-001	1.046525089898047E-001
8.5184675E-001	1.048858392362796E-001
8.5284662E-001	1.053563763939400E-001
8.5383546E-001	1.060706626934307E-001
8.5483205E-001	1.065775727232299E-001
8.5583711E-001	1.072425887299082E-001
8.5682273E-001	1.077451231647968E-001
8.5781509E-001	1.080377892832511E-001
8.5882932E-001	1.086441442473899E-001
8.5985512E-001	1.089291449601735E-001
8.6081785E-001	1.096866139361573E-001
8.6185336E-001	1.104746024400274E-001
8.6283833E-001	1.103311600853449E-001
8.6383921E-001	1.111113309377321E-001
8.6482096E-001	1.112607163377106E-001
8.6584109E-001	1.116498198394696E-001
8.6684859E-001	1.119354120283214E-001
8.6784196E-001	1.122463145810695E-001
8.6884457E-001	1.130428963720245E-001
8.6985755E-001	1.132095480958619E-001
8.7084526E-001	1.134276338508007E-001
8.7181437E-001	1.141734088909019E-001
8.7285799E-001	1.141337936537128E-001
8.7385756E-001	1.142471651891594E-001
8.7484354E-001	1.152099934923974E-001
8.7586361E-001	1.151833340387654E-001
8.7684071E-001	1.157381037520784E-001
8.7784845E-001	1.159595372327775E-001
8.7885624E-001	1.158334498845588E-001
8.7983835E-001	1.164307985972199E-001
8.8084823E-001	1.164797454968924E-001
8.8184214E-001	1.167195026969745E-001
8.8284582E-001	1.174347621595693E-001
8.8383794E-001	1.173680281197584E-001
8.8483244E-001	1.178644805698210E-001
8.8582611E-001	1.179466222550856E-001
8.8683349E-001	1.181263662529761E-001
8.8784570E-001	1.186744193891409E-001
8.8882530E-001	1.188641617729982E-001
8.8983947E-001	1.189166146882431E-001
8.9083827E-001	1.194655044797670E-001
8.9186072E-001	1.193558023552650E-001
8.9283937E-001	1.195930654562463E-001
8.9384127E-001	1.199872945448578E-001
8.9483875E-001	1.201815263333690E-001
8.9582324E-001	1.201395103190506E-001
8.9682955E-001	1.201002356527308E-001
8.9786470E-001	1.207910957746214E-001
8.9882201E-001	1.208207314247615E-001
8.9983028E-001	1.212360498978307E-001
9.0084261E-001	1.213424969119611E-001
9.0183461E-001	1.213182234205306E-001
9.0283710E-001	1.216394672756671E-001
9.0384710E-001	1.218840452945897E-001
9.0485120E-001	1.219425507200263E-001
9.0586585E-001	1.223170205571311E-001
9.0681112E-001	1.227858566196149E-001
9.0786016E-001	1.224388748200398E-001
9.0885586E-001	1.229611796464910E-001
9.0967959E-001	1.227070173352128E-001
9.1020507E-001	1.212571093014307E-001
9.0953422E-001	3.421533606834370E-002
9.0853965E-001	-3.726664086907826E-003
9.0753818E-001	-1.877049693225508E-002
9.0652001E-001	-2.843012991878713E-002
9.0554178E-001	-3.648473649216744E-002
9.0453982E-001	-4.161550878995546E-002
9.0353024E-001	-4.673182751759231E-002
9.0253377E-001	-5.147830909118056E-002
9.0151978E-001	-5.456418091327764E-002
9.0052009E-001	-5.818413648995796E-002
8.9954460E-001	-6.100415846298429E-002
8.9852959E-001	-6.390679042130953E-002
8.9753354E-001	-6.608293852251423E-002
8.9653838E-001	-6.853447111185501E-002
8.9551848E-001	-7.101004705246994E-002
8.9454097E-001	-7.243095901449803E-002
8.9352280E-001	-7.491930382521761E-002
8.9252144E-001	-7.655776543887716E-002
8.9152992E-001	-7.774241025456141E-002
8.9054447E-001	-7.933359579355637E-002
8.8951600E-001	-8.123525241562329E-002
8.8852102E-001	-8.254824597733447E-002
8.8753343E-001	-8.387457558678245E-002
8.8653940E-001	-8.529978391231485E-002
8.8554424E-001	-8.648943888126957E-002
8.8454974E-001	-8.773660240694880E-002
8.8355321E-001	-8.870599826763348E-002
8.8255686E-001	-9.004155912057144E-002
8.8154417E-001	-9.116639440913743E-002
8.8054478E-001	-9.227533444451796E-002
8.7954521E-001	-9.304714816001525E-002
8.7852651E-001	-9.412630327494353E-002
8.7752283E-001	-9.511110157233607E-002
8.7655187E-001	-9.619388242114146E-002
8.7554622E-001	-9.657067234662398E-002
8.7451309E-001	-9.809581649110255E-002
8.7355167E-001	-9.870464792820011E-002
8.7256169E-001	-9.954763619505091E-002
8.7152582E-001	-1.006916643085853E-001
8.7053347E-001	-1.006626985035832E-001
8.6953807E-001	-1.016753861611643E-001
8.6852676E-001	-1.031022220160120E-001
8.6753774E-001	-1.029755364310130E-001
8.6653554E-001	-1.037778885241729E-001
8.6555225E-001	-1.049163048155605E-001
8.6455506E-001	-1.059587037501237E-001
8.6353838E-001	-1.066206606208450E-001
8.6254966E-001	-1.070400500601090E-001
8.6154759E-001	-1.076038531200205E-001
8.6053741E-001	-1.085179361127449E-001
8.5955089E-001	-1.088156501797064E-001
8.5852200E-001	-1.098767240117822E-001
8.5755610E-001	-1.102585556433984E-001
8.5653687E-001	-1.106441749466787E-001
8.5554796E-001	-1.119215024152286E-001
8.5456491E-001	-1.120759800628381E-001
8.5356063E-001	-1.124538689058411E-001
8.5255098E-001	-1.132970478178725E-001
8.5150409E-001	-1.140810368341154E-001
8.5054290E-001	-1.145158334359249E-001
8.4957224E-001	-1.151929193314298E-001
8.4856689E-001	-1.157769760185929E-001
8.4752995E-001	-1.157959088579644E-001
8.4654593E-001	-1.167884736356366E-001
8.4554505E-001	-1.173841617311595E-001
8.4454763E-001	-1.176681535919976E-001
8.4352964E-001	-1.187466162567338E-001
8.4255946E-001	-1.192930612920053E-001
8.4159118E-001	-1.194363781595946E-001
8.4054750E-001	-1.198284694821468E-001
8.3958507E-001	-1.204470683199659E-001
8.3857173E-001	-1.212126734252601E-001
8.3757991E-001	-1.215353102285276E-001
8.3658969E-001	-1.220970597049153E-001
8.3554357E-001	-1.228059509562116E-001
8.3457971E-001	-1.233927177920662E-001
8.3356160E-001	-1.237220036521277E-001
8.3255059E-001	-1.242358612103593E-001
8.3156931E-001	-1.247932875218494E-001
8.3060098E-001	-1.251955014412048E-001
8.2956034E-001	-1.258721321269323E-001
8.2859296E-001	-1.264617723171356E-001
8.2753468E-001	-1.267572646475931E-001
8.2657975E-001	-1.274144614149848E-001
8.2558161E-001	-1.277962149017384E-001
8.2457125E-001	-1.283122328868895E-001
8.2357633E-001	-1.287674347663086E-001
8.2255322E-001	-1.293463954977967E-001
8.2156378E-001	-1.299318175555930E-001
8.2056886E-001	-1.301243854514151E-001
8.1956422E-001	-1.305243628513479E-001
8.1856906E-001	-1.315303719947460E-001
8.1756502E-001	-1.319248053176258E-001
8.1654507E-001	-1.321922396309674E-001
8.1555009E-001	-1.329701827252631E-001
8.1455094E-001	-1.333741500145860E-001
8.1353253E-001	-1.337368070251415E-001
8.1257516E-001	-1.342945111639526E-001
8.1155407E-001	-1.345745759705705E-001
8.1063122E-001	-1.353351579446374E-001
8.1005776E-001	-1.333601742982864E-001
8.1065631E-001	-4.050791924139618E-002
8.1166172E-001	1.238481245511351E-003
8.1266570E-001	1.808080443017259E-002
8.1365985E-001	2.931016499469814E-002
8.1464350E-001	3.750628604622635E-002
8.1564444E-001	4.369118964489260E-002
8.1669194E-001	4.948970048119217E-002
8.1765014E-001	5.366204728165419E-002
8.1865168E-001	5.744251288922031E-002
8.1966966E-001	6.059769880785443E-002
8.2067072E-001	6.430973202266083E-002
8.2165128E-001	6.703861163825642E-002
8.2266462E-001	6.972460222809929E-002
8.2367271E-001	7.274688074917177E-002
8.2465875E-001	7.464366559698110E-002
8.2566059E-001	7.682457391207120E-002
8.2667172E-001	7.808357671213684E-002
8.2765353E-001	8.071266793168030E-002
8.2866192E-001	8.199941893798024E-002
8.2968003E-001	8.330906954318046E-002
8.3064157E-001	8.483814589541261E-002
8.3167577E-001	8.672492114689051E-002
8.3267945E-001	8.789069938507907E-002
8.3368474E-001	8.918646369474326E-002
8.3467418E-001	9.052510868275032E-002
8.3566457E-001	9.187371658023302E-002
8.3664972E-001	9.308270529705909E-002
8.3766443E-001	9.369317825055790E-002
8.3866733E-001	9.482010800598362E-002
8.3967465E-001	9.581145909787359E-002
8.4067404E-001	9.658063642025327E-002
8.4164047E-001	9.785833900483992E-002
8.4265107E-001	9.845106796947922E-002
8.4364831E-001	9.940888972857076E-002
8.4465981E-001	1.002939670967562E-001
8.4566402E-001	1.006026807482600E-001
8.4665918E-001	1.014571850084597E-001
8.4764671E-001	1.023903465312384E-001
8.4863359E-001	1.028108631812592E-001
8.4965158E-001	1.038826431182247E-001
8.5066378E-001	1.045725983912467E-001
8.5168517E-001	1.048757229345265E-001
8.5263890E-001	1.053776909528237E-001
8.5364741E-001	1.057703743550789E-001
8.5463613E-001	1.066555153164597E-001
8.5566759E-001	1.073668317317414E-001
8.5665905E-001	1.077738185240717E-001
8.5763717E-001	1.080958902387431E-001
8.5866791E-001	1.090604185506145E-001
8.5966027E-001	1.091797830433485E-001
8.6064535E-001	1.101611293662712E-001
8.6166662E-001	1.103242834754012E-001
8.6265594E-001	1.106631418310653E-001
8.6365676E-001	1.111335724902651E-001
8.6463219E-001	1.114562205211440E-001
8.6565232E-001	1.117346815040548E-001
8.6665952E-001	1.116757680041095E-001
8.6765164E-001	1.122696524899873E-001
8.6863530E-001	1.129056687156358E-001
8.6963892E-001	1.128967658237177E-001
8.7065613E-001	1.139184603709036E-001
8.7164575E-001	1.143220518025813E-001
8.7264198E-001	1.144123499247212E-001
8.7365592E-001	1.149411177504116E-001
8.7466180E-001	1.149182485037107E-001
8.7566018E-001	1.151333688068443E-001
8.7664789E-001	1.155274159306372E-001
8.7762797E-001	1.158016991146185E-001
8.7866604E-001	1.163427106760166E-001
8.7963367E-001	1.163022748746536E-001
8.8064772E-001	1.164217025421010E-001
8.8162738E-001	1.169995177468213E-001
8.8263613E-001	1.170637756241142E-001
8.8362771E-001	1.175084451247972E-001
8.8464022E-001	1.181730673200005E-001
8.8564545E-001	1.179359344317131E-001
8.8663083E-001	1.184009504332038E-001
8.8764888E-001	1.187695879834119E-001
8.8866711E-001	1.191254119837171E-001
8.8964635E-001	1.193399989667041E-001
8.9063215E-001	1.191889037619586E-001
8.9164156E-001	1.198127507921998E-001
8.9263767E-001	1.195293909663127E-001
8.9362276E-001	1.201903505344801E-001
8.9461565E-001	1.203916286359786E-001
8.9567059E-001	1.205326125060242E-001
8.9661503E-001	1.205990576116300E-001
8.9766359E-001	1.207681131652660E-001
8.9861149E-001	1.210093495815442E-001
8.9965266E-001	1.211362878481546E-001
9.0066475E-001	1.217413656586022E-001
9.0162069E-001	1.215548283523978E-001
9.0264082E-001	1.218025426863250E-001
9.0361279E-001	1.217611808571277E-001
9.0462601E-001	1.217480367911909E-001
9.0562809E-001	1.225313014799250E-001
9.0659803E-001	1.221233352466868E-001
9.0763265E-001	1.227616702413390E-001
9.0864551E-001	1.231487211426372E-001
9.0959275E-001	1.227424982547136E-001
9.1002554E-001	1.207245849072933E-001
9.0950763E-001	3.457308939444671E-002
9.0853119E-001	-3.437659590350403E-003
9.0750927E-001	-1.890983214360412E-002
9.0624541E-001	-3.463348866605942E-002
9.0490335E-001	-4.579130701582734E-002
9.0391690E-001	-5.104536742523857E-002
9.0290475E-001	-5.530139546910373E-002
9.0191931E-001	-5.930770926729395E-002
9.0091503E-001	-6.300733905906492E-002
8.9993513E-001	-6.589910632896223E-002
8.9891422E-001	-6.892778562312873E-002
8.9792883E-001	-7.134655756979336E-002
8.9689577E-001	-7.374687661002899E-002
8.9591402E-001	-7.568040480664734E-002
8.9491832E-001	-7.801626612328826E-002
8.9392352E-001	-7.998014968325105E-002
8.9294201E-001	-8.170544414746522E-002
8.9190406E-001	-8.332535471870661E-002
8.9092422E-001	-8.507478745930186E-002
8.8993931E-001	-8.634661677879851E-002
8.8892066E-001	-8.786973132131037E-002
8.8792223E-001	-8.932457319288378E-002
8.8693923E-001	-9.075967291439008E-002
8.8595504E-001	-9.201538524831884E-002
8.8495243E-001	-9.307188672634470E-002
8.8392240E-001	-9.432068983679276E-002
8.8294065E-001	-9.555085930386897E-002
8.8192391E-001	-9.653900846563035E-002
8.8092768E-001	-9.770102292747707E-002
8.7996733E-001	-9.857033462160159E-002
8.7896377E-001	-9.975550187475646E-002
8.7795335E-001	-1.008299188860873E-001
8.7693512E-001	-1.016147785194648E-001
8.7594390E-001	-1.027871709213484E-001
8.7496650E-001	-1.033250242816625E-001
8.7395477E-001	-1.045356653803200E-001
8.7293571E-001	-1.050582774742337E-001
8.7195998E-001	-1.061634835959584E-001
8.7095153E-001	-1.067172420487081E-001
8.6966008E-001	-1.052161704790260E-001
8.6831802E-001	-1.027871556752538E-001
8.6734319E-001	-1.035488178367136E-001
8.6634111E-001	-1.043206700296315E-001
8.6535281E-001	-1.050632782107979E-001
8.6435431E-001	-1.057296964270924E-001
8.6334473E-001	-1.064051274658628E-001
8.6236042E-001	-1.071376733102457E-001
8.6133587E-001	-1.081299250083108E-001
8.6034155E-001	-1.088207777220660E-001
8.5935742E-001	-1.089376637505159E-001
8.5836452E-001	-1.096326587721710E-001
8.5733569E-001	-1.105091162888261E-001
8.5632014E-001	-1.109915744099350E-001
8.5535806E-001	-1.117058402203300E-001
8.5432804E-001	-1.122844560520240E-001
8.5331863E-001	-1.129305774380489E-001
8.5232568E-001	-1.135477206876709E-001
8.5134125E-001	-1.139889382929713E-001
8.5033625E-001	-1.148807370034906E-001
8.4933621E-001	-1.153211600699077E-001
8.4836793E-001	-1.159827228704531E-001
8.4735239E-001	-1.164321581384649E-001
8.4635592E-001	-1.169274751510881E-001
8.4531963E-001	-1.170819057496613E-001
8.4435081E-001	-1.182388395825833E-001
8.4333473E-001	-1.183932919607118E-001
8.4233075E-001	-1.191808490979447E-001
8.4134549E-001	-1.196733226792679E-001
8.4033710E-001	-1.203175683471343E-001
8.3937979E-001	-1.201273878277454E-001
8.3838171E-001	-1.210819372251906E-001
8.3734775E-001	-1.216406270309736E-001
8.3637953E-001	-1.224128132065139E-001
8.3534551E-001	-1.226167802664415E-001
8.3433199E-001	-1.233619926669807E-001
8.3333606E-001	-1.236548846828991E-001
8.3235717E-001	-1.241080673687437E-001
8.3137614E-001	-1.251010760423489E-001
8.3034444E-001	-1.249001027015902E-001
8.2936066E-001	-1.260671574380940E-001
8.2837677E-001	-1.263060282950327E-001
8.2735181E-001	-1.271940593130718E-001
8.2632172E-001	-1.273603887055755E-001
8.2535344E-001	-1.276587965484295E-001
8.2435840E-001	-1.282197521068150E-001
8.2334775E-001	-1.292572628741187E-001
8.2235605E-001	-1.291607502089054E-001
8.2136291E-001	-1.299103672995614E-001
8.2036984E-001	-1.301708843179603E-001
8.1934690E-001	-1.306205869962769E-001
8.1836367E-001	-1.315373165912376E-001
8.1735975E-001	-1.319247675990622E-001
8.1634897E-001	-1.326351574173672E-001
8.1536299E-001	-1.325412728064870E-001
8.1434935E-001	-1.330345229038761E-001
8.1335032E-001	-1.332730234221171E-001
8.1237441E-001	-1.339273609186489E-001
8.1135905E-001	-1.344839176672705E-001
8.1048506E-001	-1.354884706282373E-001
8.1011510E-001	-1.324652254581451E-001
8.1065822E-001	-4.064057018688878E-002
8.1165433E-001	1.256756358204536E-003
8.1264567E-001	1.830291982386606E-002
8.1367105E-001	2.923069630007924E-002
8.1465119E-001	3.714563003827448E-002
8.1564844E-001	4.413817975997758E-002
8.1667513E-001	4.951392097778065E-002
8.1764436E-001	5.391653613359836E-002
8.1866622E-001	5.728454670558369E-002
8.1966007E-001	6.119343573744940E-002
8.2062882E-001	6.443444024598999E-002
8.2165253E-001	6.731190293578870E-002
8.2267904E-001	7.000839057447494E-002
8.2366061E-001	7.232685397482586E-002
8.2465369E-001	7.433187864996782E-002
8.2566655E-001	7.690967394349491E-002
8.2665467E-001	7.834675227705828E-002
8.2767123E-001	8.074631297479429E-002
8.2864392E-001	8.201093299107426E-002
8.2964462E-001	8.338220220886972E-002
8.3065629E-001	8.506379357573612E-002
8.3166206E-001	8.696134244436760E-002
8.3267516E-001	8.791057098036048E-002
8.3363932E-001	8.914777907301419E-002
8.3467174E-001	9.021461108285522E-002
8.3568478E-001	9.170156210247060E-002
8.3667481E-001	9.286457017340055E-002
8.3765763E-001	9.395311592595168E-002
8.3864778E-001	9.430764329240238E-002
8.3964938E-001	9.588602457747397E-002
8.4066170E-001	9.694576502294727E-002
8.4164262E-001	9.735021178817582E-002
8.4266382E-001	9.859134064538888E-002
8.4363604E-001	9.928434063974390E-002
8.4463799E-001	1.004571659766413E-001
8.4567893E-001	1.008453662334772E-001
8.4665841E-001	1.015322285497358E-001
8.4765184E-001	1.021804409791474E-001
8.4865922E-001	1.032394209221281E-001
8.4967315E-001	1.038649293111156E-001
8.5067046E-001	1.045619495799419E-001
8.5164630E-001	1.054516610585987E-001
8.5265166E-001	1.057154255298279E-001
8.5365564E-001	1.059871416159526E-001
8.5466462E-001	1.066671067986773E-001
8.5565680E-001	1.075531210646861E-001
8.5663790E-001	1.078075023574966E-001
8.5764092E-001	1.081313931521167E-001
8.5865426E-001	1.086778233034744E-001
8.5965782E-001	1.094764443286875E-001
8.6065125E-001	1.099001352844218E-001
8.6163515E-001	1.103885704134076E-001
8.6262310E-001	1.105897589586674E-001
8.6364996E-001	1.110295304097233E-001
8.6463630E-001	1.111798289197460E-001
8.6564440E-001	1.119126917932322E-001
8.6665040E-001	1.121939818409303E-001
8.6763781E-001	1.126081412830564E-001
8.6866736E-001	1.132393972085859E-001
8.6964214E-001	1.132514817053800E-001
8.7064487E-001	1.141052279034973E-001
8.7164336E-001	1.145300146847683E-001
8.7264681E-001	1.144117263870109E-001
8.7364477E-001	1.146752892441497E-001
8.7465423E-001	1.148855035641680E-001
8.7565517E-001	1.155883000335765E-001
8.7663645E-001	1.161557920937937E-001
8.7765199E-001	1.164461555890739E-001
8.7866604E-001	1.163444482997333E-001
8.7966239E-001	1.161933942111553E-001
8.8064373E-001	1.170970813750672E-001
8.8164628E-001	1.174160404717211E-001
8.8262486E-001	1.171164395874018E-001
8.8364655E-001	1.174855888821185E-001
8.8464147E-001	1.178660009884172E-001
8.8564992E-001	1.178445576310719E-001
8.8662100E-001	1.184027903644300E-001
8.8761109E-001	1.185558395529238E-001
8.8863152E-001	1.191109709303689E-001
8.8963127E-001	1.190417698860445E-001
8.9062768E-001	1.191746951080862E-001
8.9162159E-001	1.197858242042086E-001
8.9263290E-001	1.197945289831197E-001
8.9362448E-001	1.204001039000873E-001
8.9463305E-001	1.203641180914858E-001
8.9563388E-001	1.202731794436219E-001
8.9663261E-001	1.209222567957586E-001
8.9764357E-001	1.212423120935759E-001
8.9862901E-001	1.211858762048736E-001
8.9961588E-001	1.213740352196275E-001
9.0061808E-001	1.215701841024889E-001
9.0163106E-001	1.214730261687051E-001
9.0260297E-001	1.217389056907483E-001
9.0361959E-001	1.218472970477134E-001
9.0463728E-001	1.223296551206317E-001
9.0561831E-001	1.226141460550333E-001
9.0662307E-001	1.226348253311937E-001
9.0762877E-001	1.230802057069482E-001
9.0863174E-001	1.233061953378773E-001
9.0958929E-001	1.230245772361137E-001
9.1010576E-001	1.224455343825477E-001
9.0953940E-001	3.448685927691642E-002
9.0853566E-001	-3.676314688905072E-003
9.0753603E-001	-1.854181888996173E-002
9.0654111E-001	-2.854547539242991E-002
9.0550673E-001	-3.595904357024227E-002
9.0454006E-001	-4.163576771194732E-002
9.0352148E-001	-4.667319661368508E-002
9.0252835E-001	-5.045166462487360E-002
9.0151298E-001	-5.454786953999230E-002
9.0055501E-001	-5.788088852919093E-002
8.9953446E-001	-6.067285622056157E-002
8.9852762E-001	-6.341544685333422E-002
8.9753377E-001	-6.599680466266966E-002
8.9652890E-001	-6.822777402380265E-002
8.9551741E-001	-7.049836242502466E-002
8.9451993E-001	-7.250126259815382E-002
8.9352399E-001	-7.472496340451318E-002
8.9250934E-001	-7.617367058992386E-002
8.9152956E-001	-7.767909241805748E-002
8.9051801E-001	-7.944312484727956E-002
8.8951671E-001	-8.109363190898744E-002
8.8850313E-001	-8.233617796321124E-002
8.8753009E-001	-8.343871639765502E-002
8.8653654E-001	-8.497552578854872E-002
8.8551873E-001	-8.558901986624656E-002
8.8452995E-001	-8.765446051472292E-002
8.8353366E-001	-8.815733391653607E-002
8.8251662E-001	-8.928083893153049E-002
8.8155013E-001	-9.084575564635017E-002
8.8054043E-001	-9.203515793369299E-002
8.7953293E-001	-9.287727604344191E-002
8.7854588E-001	-9.407853749925632E-002
8.7752503E-001	-9.470163123094111E-002
8.7653518E-001	-9.608951711992697E-002
8.7553340E-001	-9.673608271232648E-002
8.7453353E-001	-9.735644656164510E-002
8.7354201E-001	-9.858634859254511E-002
8.7251121E-001	-9.923397052895128E-002
8.7153083E-001	-1.000028376777968E-001
8.7054533E-001	-1.006381422522717E-001
8.6953914E-001	-1.018233355997058E-001
8.6850566E-001	-1.028471616338249E-001
8.6754596E-001	-1.029781000343739E-001
8.6652571E-001	-1.037631501029765E-001
8.6553991E-001	-1.041543566863293E-001
8.6455190E-001	-1.048856793247441E-001
8.6352843E-001	-1.060307092826675E-001
8.6254561E-001	-1.066298208164942E-001
8.6153758E-001	-1.076657595802786E-001
8.6052221E-001	-1.088550587416424E-001
8.5953283E-001	-1.084286222510320E-001
8.5856169E-001	-1.095168505174418E-001
8.5754073E-001	-1.101736882529049E-001
8.5654050E-001	-1.106444192291403E-001
8.5551393E-001	-1.113038600112000E-001
8.5455054E-001	-1.120388269320957E-001
8.5353321E-001	-1.120750428936277E-001
8.5252029E-001	-1.131619957655119E-001
8.5157734E-001	-1.134422418350972E-001
8.5054421E-001	-1.144809694615780E-001
8.4952575E-001	-1.148577206768087E-001
8.4854293E-001	-1.157407590912447E-001
8.4753311E-001	-1.161802645979646E-001
8.4654564E-001	-1.164743486722861E-001
8.4553039E-001	-1.167544160831586E-001
8.4455854E-001	-1.176026045051586E-001
8.4353030E-001	-1.181043894720020E-001
8.4255141E-001	-1.189400337084575E-001
8.4155560E-001	-1.193889187545412E-001
8.4055936E-001	-1.200131668226319E-001
8.3953911E-001	-1.206743977791458E-001
8.3854342E-001	-1.211432859439547E-001
8.3755893E-001	-1.212017400086752E-001
8.3657545E-001	-1.221720173403067E-001
8.3556873E-001	-1.225789936121414E-001
8.3455467E-001	-1.230383999128306E-001
8.3354902E-001	-1.236978219822054E-001
8.3256173E-001	-1.235558863522275E-001
8.3155614E-001	-1.244558589188034E-001
8.3057833E-001	-1.253238167027357E-001
8.2952338E-001	-1.253914807543708E-001
8.2856411E-001	-1.256713730421057E-001
8.2757050E-001	-1.265016821343721E-001
8.2655019E-001	-1.272518437321262E-001
8.2554793E-001	-1.275971645523826E-001
8.2454652E-001	-1.282582094685893E-001
8.2357275E-001	-1.287571783867419E-001
8.2255179E-001	-1.292513726037692E-001
8.2156140E-001	-1.296741542302897E-001
8.2056928E-001	-1.298487512394790E-001
8.1953639E-001	-1.300562794009847E-001
8.1856507E-001	-1.313551498956423E-001
8.1754881E-001	-1.314308041258266E-001
8.1654936E-001	-1.324934347670660E-001
8.1552845E-001	-1.326231698816018E-001
8.1455606E-001	-1.329766949638721E-001
8.1354547E-001	-1.330170775246291E-001
8.1255859E-001	-1.337637055182346E-001
8.1154865E-001	-1.343248982016960E-001
8.1058365E-001	-1.350655229744557E-001
8.1006926E-001	-1.351054936647418E-001
8.1063807E-001	-4.035510480663375E-002
8.1164831E-001	1.836234185921715E-003
8.1267595E-001	1.838461746767828E-002
8.1365752E-001	2.940010792075615E-002
8.1464136E-001	3.758085154738561E-002
8.1565374E-001	4.376300169085989E-002
8.1663507E-001	4.955447030132987E-002
8.1767881E-001	5.426977746430106E-002
8.1866324E-001	5.732603636742728E-002
8.1967074E-001	6.140342904082341E-002
8.2066292E-001	6.476849968614140E-002
8.2166582E-001	6.684303212117543E-002
8.2266420E-001	7.000743783148089E-002
8.2365024E-001	7.263368910557944E-002
8.2464749E-001	7.459929639783985E-002
8.2565027E-001	7.655131972946816E-002
8.2665086E-001	7.856525581640494E-002
8.2765508E-001	8.055623721585115E-002
8.2865638E-001	8.227099270421845E-002
8.2962912E-001	8.347510049740481E-002
8.3067590E-001	8.528489792822991E-002
8.3164841E-001	8.636111243524480E-002
8.3265126E-001	8.810468202594801E-002
8.3362472E-001	8.951130973313193E-002
8.3462954E-001	9.013489320770773E-002
8.3564395E-001	9.226092106352268E-002
8.3663720E-001	9.296468097751065E-002
8.3766264E-001	9.400503592634601E-002
8.3864433E-001	9.512401001389947E-002
8.3964360E-001	9.603655815158962E-002
8.4064132E-001	9.631084975855497E-002
8.4165740E-001	9.739449050242988E-002
8.4264708E-001	9.867205029284531E-002
8.4363651E-001	9.952774718374247E-002
8.4465349E-001	1.002719054274543E-001
8.4564620E-001	1.009574599081170E-001
8.4665358E-001	1.018560650861924E-001
8.4762841E-001	1.025041752253419E-001
8.4861851E-001	1.033080856108830E-001
8.4964210E-001	1.038936822226752E-001
8.5063040E-001	1.045787928763916E-001
8.5163438E-001	1.051477247642147E-001
8.5264277E-001	1.056172584735404E-001
8.5364872E-001	1.060688258493664E-001
8.5463494E-001	1.068328052448724E-001
8.5562032E-001	1.073132639888816E-001
8.5664362E-001	1.080557658957941E-001
8.5765147E-001	1.085628860250673E-001
8.5863894E-001	1.088180992476369E-001
8.5962456E-001	1.092476768557119E-001
8.6062485E-001	1.097995746345686E-001
8.6162913E-001	1.106511801826181E-001
8.6261088E-001	1.107685974350678E-001
8.6365598E-001	1.111987628111686E-001
8.6462224E-001	1.118828982321751E-001
8.6563081E-001	1.119671128862705E-001
8.6661911E-001	1.121059835164080E-001
8.6762023E-001	1.126582375727603E-001
8.6865377E-001	1.129164755930783E-001
8.6965340E-001	1.136999235453984E-001
8.7063146E-001	1.133809438389211E-001
8.7161809E-001	1.143312725341985E-001
8.7262607E-001	1.142858750255842E-001
8.7362033E-001	1.147357978582105E-001
8.7461007E-001	1.154251028438687E-001
8.7565941E-001	1.157842199663042E-001
8.7665498E-001	1.159611398088207E-001
8.7762266E-001	1.161962335549847E-001
8.7862676E-001	1.164112674175867E-001
8.7963355E-001	1.165832448060874E-001
8.8063455E-001	1.168295102090473E-001
8.8164252E-001	1.172095692578571E-001
8.8263023E-001	1.176218285432298E-001
8.8363135E-001	1.181049439538688E-001
8.8463593E-001	1.178868816372154E-001
8.8563329E-001	1.182499921673705E-001
8.8660777E-001	1.187019530787241E-001
8.8762259E-001	1.193013175873573E-001
8.8861477E-001	1.187002849075256E-001
8.8960886E-001	1.195096113305121E-001
8.9062452E-001	1.194382068632102E-001
8.9162517E-001	1.196902723879445E-001
8.9262408E-001	1.200521623681268E-001
8.9362508E-001	1.205753804986678E-001
8.9462221E-001	1.204171019123382E-001
8.9564049E-001	1.204543603687651E-001
8.9663690E-001	1.208368414943961E-001
8.9762551E-001	1.210550851257586E-001
8.9862490E-001	1.210369677455335E-001
8.9962095E-001	1.214307981405270E-001
9.0061253E-001	1.216980204572556E-001
9.0160406E-001	1.219235009306836E-001
9.0263528E-001	1.219467078163118E-001
9.0362871E-001	1.220281249671071E-001
9.0463865E-001	1.218058875658450E-001
9.0563512E-001	1.229633872949134E-001
9.0662622E-001	1.226921441136962E-001
9.0760922E-001	1.229967563068148E-001
9.0862077E-001	1.230144693033284E-001
9.0959376E-001	1.232750165315037E-001
9.1015923E-001	1.303233131766319E-001