Ewe/V	<I>/mA	
8.1034815E-001	-9.417378902435303E-001
8.1101561E-001	-2.437837207800588E-001
8.1203854E-001	-8.407410221528171E-002
8.1303447E-001	-5.190835680738670E-002
8.1402504E-001	-3.611165393831339E-002
8.1504297E-001	-2.669343929554202E-002
8.1604642E-001	-2.046059247668559E-002
8.1703109E-001	-1.585082165933607E-002
8.1802148E-001	-1.254663671936346E-002
8.1905353E-001	-9.763016551179324E-003
8.2005787E-001	-7.699547196975409E-003
8.2103837E-001	-5.699669035242820E-003
8.2206386E-001	-4.118187344148181E-003
8.2304054E-001	-2.921068350306541E-003
8.2404280E-001	-1.818444087320318E-003
8.2505822E-001	-7.885508015021934E-004
8.2605910E-001	1.020185742955010E-004
8.2705677E-001	9.781131553082017E-004
8.2804811E-001	1.678454628730723E-003
8.2902551E-001	2.233234962510898E-003
8.3002329E-001	2.925033981938545E-003
8.3104920E-001	3.389740314057733E-003
8.3203691E-001	4.131976408824005E-003
8.3304304E-001	4.449304404704424E-003
8.3402598E-001	4.736086792225909E-003
8.3504790E-001	5.215462649054980E-003
8.3602613E-001	5.527902584364641E-003
8.3706051E-001	6.010202477864657E-003
8.3805746E-001	6.245434682692744E-003
8.3904541E-001	6.451380204478413E-003
8.4006035E-001	6.704511642072194E-003
8.4106719E-001	7.048802023729709E-003
8.4203851E-001	7.245905613733478E-003
8.4303981E-001	7.508222447870166E-003
8.4406197E-001	7.722326294883730E-003
8.4502685E-001	7.973782763871520E-003
8.4604788E-001	8.235789689087655E-003
8.4702653E-001	8.177880195116505E-003
8.4802037E-001	8.485539010801027E-003
8.4901905E-001	8.776647510960939E-003
8.5002029E-001	8.868304828781051E-003
8.5102266E-001	9.113357542237382E-003
8.5203058E-001	9.244035560651231E-003
8.5300654E-001	9.367612416490478E-003
8.5401970E-001	9.438227409642203E-003
8.5503083E-001	9.540179422447309E-003
8.5603923E-001	9.531468176413680E-003
8.5703272E-001	9.805448015517831E-003
8.5802472E-001	9.919678858701646E-003
8.5902321E-001	9.949395941200645E-003
8.6003542E-001	1.006928634475985E-002
8.6101937E-001	1.015242428929128E-002
8.6201525E-001	1.042578505136088E-002
8.6301541E-001	1.060074184375309E-002
8.6402947E-001	1.057039502160391E-002
8.6504108E-001	1.057866034052198E-002
8.6601174E-001	1.064051287941378E-002
8.6704570E-001	1.063941722059944E-002
8.6802840E-001	1.083380929494822E-002
8.6902428E-001	1.087881340491578E-002
8.7002337E-001	1.087584889431979E-002
8.7103367E-001	1.098100784750869E-002
8.7199521E-001	1.123052279740524E-002
8.7299985E-001	1.113198209248524E-002
8.7403250E-001	1.132519811944853E-002
8.7500411E-001	1.125469541727174E-002
8.7600732E-001	1.133356200894975E-002
8.7702954E-001	1.146687862163454E-002
8.7801069E-001	1.145248270032787E-002
8.7902081E-001	1.149019554752562E-002
8.8002884E-001	1.174551066922914E-002
8.8104349E-001	1.167078005896019E-002
8.8201046E-001	1.165039396779066E-002
8.8303059E-001	1.179278972199829E-002
8.8402736E-001	1.189030422294662E-002
8.8504094E-001	1.195260168744613E-002
8.8599706E-001	1.189239645471940E-002
8.8698786E-001	1.198052242530067E-002
8.8801837E-001	1.205707290401772E-002
8.8898957E-001	1.208150015572805E-002
8.9003873E-001	1.206826836295172E-002
8.9103186E-001	1.205239355844515E-002
8.9199650E-001	1.222275893901922E-002
8.9299440E-001	1.220067002932373E-002
8.9400476E-001	1.224298776368471E-002
8.9504004E-001	1.222248540387742E-002
8.9602685E-001	1.236309293836131E-002
8.9700133E-001	1.233480741932544E-002
8.9801240E-001	1.231867641062011E-002
8.9901471E-001	1.234629854238729E-002
9.0003163E-001	1.251627713198972E-002
9.0101653E-001	1.254948104379575E-002
9.0199912E-001	1.263003220630864E-002
9.0298730E-001	1.246393360097997E-002
9.0399712E-001	1.260748736438702E-002
9.0500933E-001	1.262185724027325E-002
9.0600550E-001	1.255934825751220E-002
9.0701878E-001	1.264818604183085E-002
9.0802610E-001	1.269960152773358E-002
9.0899462E-001	1.278822297659464E-002
9.0973085E-001	1.274737286392685E-002
9.1001791E-001	1.288332170732912E-002
9.0952790E-001	3.942091930064067E-003
9.0855366E-001	3.937168754466164E-004
9.0752608E-001	-1.365129968169624E-003
9.0652251E-001	-2.365130025934381E-003
9.0552700E-001	-3.208867403364610E-003
9.0454620E-001	-3.727437770282047E-003
9.0355152E-001	-4.345807727713610E-003
9.0254474E-001	-4.743389106513327E-003
9.0154237E-001	-5.250087095276496E-003
9.0051317E-001	-5.718487995723817E-003
8.9955038E-001	-6.094878728670025E-003
8.9852512E-001	-6.325020694980255E-003
8.9754021E-001	-6.585871116057906E-003
8.9655066E-001	-6.769424984948119E-003
8.9555162E-001	-7.073553728232799E-003
8.9452130E-001	-7.272505679578363E-003
8.9353436E-001	-7.468726473262781E-003
8.9254630E-001	-7.737743905261441E-003
8.9154971E-001	-7.886119235660190E-003
8.9053655E-001	-8.192370759891238E-003
8.8954580E-001	-8.321575681498716E-003
8.8852769E-001	-8.448660489840797E-003
8.8753682E-001	-8.653693988560973E-003
8.8656068E-001	-8.867719021034920E-003
8.8553965E-001	-9.033046059552546E-003
8.8457108E-001	-9.299766859807435E-003
8.8354570E-001	-9.421745355402956E-003
8.8252795E-001	-9.374736707710413E-003
8.8152015E-001	-9.554256857823476E-003
8.8052285E-001	-9.857766417303772E-003
8.7952578E-001	-9.927854047484003E-003
8.7853450E-001	-1.005325322388997E-002
8.7754560E-001	-1.014934071645923E-002
8.7652844E-001	-1.024644746817319E-002
8.7553036E-001	-1.034924438289450E-002
8.7452400E-001	-1.054419189863454E-002
8.7350678E-001	-1.052687490467319E-002
8.7250704E-001	-1.061617169247855E-002
8.7154907E-001	-1.073974187988254E-002
8.7054467E-001	-1.079568287857186E-002
8.6956322E-001	-1.091696554461097E-002
8.6857355E-001	-1.112125590605254E-002
8.6755431E-001	-1.112128918975624E-002
8.6655700E-001	-1.126267856711316E-002
8.6556804E-001	-1.129830304735530E-002
8.6456394E-001	-1.139655342954796E-002
8.6355036E-001	-1.161663306471039E-002
8.6253875E-001	-1.166931980780792E-002
8.6155808E-001	-1.173134979176064E-002
8.6055624E-001	-1.188022119260551E-002
8.5955387E-001	-1.196299310511571E-002
8.5856861E-001	-1.214535112204421E-002
8.5754013E-001	-1.217711286536810E-002
8.5654676E-001	-1.230323705388281E-002
8.5553586E-001	-1.239565988058558E-002
8.5455686E-001	-1.239369589272937E-002
8.5354495E-001	-1.249054134715707E-002
8.5255098E-001	-1.269571793402965E-002
8.5156071E-001	-1.261816380835908E-002
8.5054719E-001	-1.286876473862525E-002
8.4955096E-001	-1.302842839452434E-002
8.4854162E-001	-1.295437345290101E-002
8.4753430E-001	-1.316801762766029E-002
8.4656185E-001	-1.311967281063881E-002
8.4555215E-001	-1.333312425556508E-002
8.4453291E-001	-1.332948784310481E-002
8.4354818E-001	-1.343247339823764E-002
8.4253126E-001	-1.354486601438441E-002
8.4155601E-001	-1.358967736959256E-002
8.4053147E-001	-1.367915187785868E-002
8.3954746E-001	-1.384701065310989E-002
8.3851945E-001	-1.386905133125027E-002
8.3753282E-001	-1.389784391808771E-002
8.3650661E-001	-1.407125131702747E-002
8.3553112E-001	-1.422693627805882E-002
8.3453906E-001	-1.412943167352768E-002
8.3354342E-001	-1.442768915321038E-002
8.3254576E-001	-1.445937761157584E-002
8.3153516E-001	-1.458377400029271E-002
8.3053797E-001	-1.452223036001271E-002
8.2955134E-001	-1.463833223444627E-002
8.2853323E-001	-1.478197005507287E-002
8.2756549E-001	-1.479610057978000E-002
8.2652450E-001	-1.492946598082978E-002
8.2553655E-001	-1.501922044908646E-002
8.2451433E-001	-1.519735743478662E-002
8.2354009E-001	-1.525514932494530E-002
8.2255465E-001	-1.540583065681209E-002
8.2157320E-001	-1.545039909778290E-002
8.2053697E-001	-1.538205438600629E-002
8.1953734E-001	-1.561518571869204E-002
8.1855428E-001	-1.559669116059628E-002
8.1756157E-001	-1.564429509118361E-002
8.1654620E-001	-1.600079445583967E-002
8.1554174E-001	-1.604149330552887E-002
8.1453568E-001	-1.599923369654457E-002
8.1353825E-001	-1.601768429950215E-002
8.1254160E-001	-1.623021947356224E-002
8.1153935E-001	-1.621328482920079E-002
8.1060123E-001	-1.653715754671489E-002
8.1018001E-001	-1.640549186969137E-002
8.1066972E-001	-6.352036850003517E-003
8.1166542E-001	-2.267749845325469E-003
8.1266719E-001	-1.912211701314099E-004
8.1364197E-001	9.608762993768933E-004
8.1467426E-001	2.004753982722894E-003
8.1563938E-001	2.866195650338979E-003
8.1667417E-001	3.523548200015506E-003
8.1766766E-001	4.098039538564892E-003
8.1863177E-001	4.700179784483616E-003
8.1963551E-001	5.210556015221975E-003
8.2066816E-001	5.695347427602956E-003
8.2166851E-001	5.841097349048969E-003
8.2265586E-001	6.404944075163677E-003
8.2363963E-001	6.644174184960633E-003
8.2463372E-001	6.902172289992951E-003
8.2564068E-001	7.154013760863803E-003
8.2662719E-001	7.441643075132905E-003
8.2764983E-001	7.726642162018835E-003
8.2865161E-001	8.028246456920757E-003
8.2963556E-001	8.057113791343988E-003
8.3065200E-001	8.438999793018711E-003
8.3163595E-001	8.629265391120966E-003
8.3263558E-001	8.666874094984442E-003
8.3363509E-001	8.737909893791668E-003
8.3466035E-001	8.899663743130962E-003
8.3562088E-001	9.245706510541921E-003
8.3663565E-001	9.327951323209238E-003
8.3763707E-001	9.545939803356301E-003
8.3862162E-001	9.588648884117174E-003
8.3962834E-001	9.686761318312115E-003
8.4062880E-001	9.854947214499277E-003
8.4165186E-001	1.012608236641586E-002
8.4260768E-001	1.011135203750882E-002
8.4362060E-001	1.026001707169294E-002
8.4463423E-001	1.034794688119647E-002
8.4564000E-001	1.033033186860868E-002
8.4660560E-001	1.044577727090955E-002
8.4764647E-001	1.062907842746955E-002
8.4863448E-001	1.080083359136620E-002
8.4968245E-001	1.085199166621720E-002
8.5062969E-001	1.072647025874457E-002
8.5161918E-001	1.086577822622853E-002
8.5263711E-001	1.096318801669804E-002
8.5362118E-001	1.109453023172628E-002
8.5462439E-001	1.110139928422665E-002
8.5561162E-001	1.116800014234788E-002
8.5660189E-001	1.141547806198810E-002
8.5762620E-001	1.132830281234884E-002
8.5861659E-001	1.138278094035676E-002
8.5963911E-001	1.133402846386411E-002
8.6063486E-001	1.144731322951120E-002
8.6161894E-001	1.174327491125010E-002
8.6264569E-001	1.165294710861609E-002
8.6364603E-001	1.178040550140288E-002
8.6465085E-001	1.180054871098379E-002
8.6561704E-001	1.174044375545927E-002
8.6662769E-001	1.181672918351576E-002
8.6763436E-001	1.188648100715858E-002
8.6862081E-001	1.196588995951434E-002
8.6962628E-001	1.192764555417855E-002
8.7062955E-001	1.191533994339841E-002
8.7164026E-001	1.219175823147889E-002
8.7261271E-001	1.207489525092951E-002
8.7362915E-001	1.197407719882876E-002
8.7461805E-001	1.213384095677861E-002
8.7561977E-001	1.208513080312287E-002
8.7664062E-001	1.224628700601643E-002
8.7762398E-001	1.224713153614729E-002
8.7860155E-001	1.240841503090034E-002
8.7963289E-001	1.219857212090966E-002
8.8062578E-001	1.243099671164666E-002
8.8159388E-001	1.242163717015696E-002
8.8262790E-001	1.249808770041089E-002
8.8362002E-001	1.260016973980849E-002
8.8462573E-001	1.256184251670214E-002
8.8562971E-001	1.256521150522240E-002
8.8661784E-001	1.265280131859094E-002
8.8760674E-001	1.262213196875478E-002
8.8862556E-001	1.262450156936407E-002
8.8964558E-001	1.260519996752768E-002
8.9062941E-001	1.270506977897026E-002
8.9157522E-001	1.268092612710539E-002
8.9260972E-001	1.269395289463605E-002
8.9363164E-001	1.280830333015254E-002
8.9461535E-001	1.286166424547593E-002
8.9559895E-001	1.286705642884453E-002
8.9660001E-001	1.276357659735766E-002
8.9761299E-001	1.285870359396050E-002
8.9858431E-001	1.300156157174831E-002
8.9962107E-001	1.296362911783301E-002
9.0062618E-001	1.310206538732869E-002
9.0160704E-001	1.301297525710834E-002
9.0261519E-001	1.314019549581294E-002
9.0362722E-001	1.313532886900541E-002
9.0458602E-001	1.307801391837793E-002
9.0561289E-001	1.315844291243989E-002
9.0662026E-001	1.318618717272033E-002
9.0762842E-001	1.317418017341192E-002
9.0862077E-001	1.314089137954799E-002
9.0958184E-001	1.328894615101991E-002
9.1004848E-001	1.344258434301804E-002
9.0952110E-001	4.237204683779451E-003
9.0851271E-001	6.437268856598361E-004
9.0751570E-001	-7.056748144610504E-004
9.0652794E-001	-1.992802167027890E-003
9.0550560E-001	-2.862607997527793E-003
9.0451038E-001	-3.344508004479101E-003
9.0352207E-001	-4.007949547995392E-003
9.0255964E-001	-4.551919808383473E-003
9.0150821E-001	-4.973889674852142E-003
9.0053558E-001	-5.346725941823602E-003
8.9956099E-001	-5.653935602255245E-003
8.9851809E-001	-5.908946659064440E-003
8.9751816E-001	-6.185975254973955E-003
8.9652985E-001	-6.651232001664049E-003
8.9552808E-001	-6.794644555209502E-003
8.9454323E-001	-7.001403499082570E-003
8.9354068E-001	-7.139721792234287E-003
8.9256775E-001	-7.303303548870901E-003
8.9154434E-001	-7.682910889312222E-003
8.9058316E-001	-7.938145420522347E-003
8.8954496E-001	-8.101089770311487E-003
8.8857228E-001	-8.221865620044771E-003
8.8755214E-001	-8.479592556450172E-003
8.8653797E-001	-8.518971743648046E-003
8.8554788E-001	-8.576325008117378E-003
8.8455307E-001	-8.928635613917740E-003
8.8355035E-001	-9.118010738009191E-003
8.8251781E-001	-9.229855526154705E-003
8.8154268E-001	-9.199615226604563E-003
8.8057864E-001	-9.428672462333958E-003
8.7957007E-001	-9.573649161905895E-003
8.7855238E-001	-9.735776967503461E-003
8.7753481E-001	-9.916576651251958E-003
8.7655747E-001	-9.994105276932050E-003
8.7553018E-001	-9.912847777321321E-003
8.7455863E-001	-1.013083079634527E-002
8.7354672E-001	-1.032778879001769E-002
8.7256294E-001	-1.040298102318785E-002
8.7154382E-001	-1.055261102758723E-002
8.7055117E-001	-1.067680734738888E-002
8.6953098E-001	-1.072718295490694E-002
8.6857659E-001	-1.088199286070378E-002
8.6753803E-001	-1.087828545702203E-002
8.6654431E-001	-1.115919058928827E-002
8.6553741E-001	-1.109631618482906E-002
8.6455530E-001	-1.134574322462227E-002
8.6352444E-001	-1.144613468971731E-002
8.6253047E-001	-1.152228605401329E-002
8.6154056E-001	-1.154064144780631E-002
8.6053288E-001	-1.164006754788458E-002
8.5956138E-001	-1.176143301722649E-002
8.5854828E-001	-1.183725124703466E-002
8.5753232E-001	-1.182274888802452E-002
8.5655391E-001	-1.203014578012662E-002
8.5556203E-001	-1.214905523886356E-002
8.5456347E-001	-1.233747763238766E-002
8.5357958E-001	-1.222329796439794E-002
8.5254985E-001	-1.249867561415650E-002
8.5154754E-001	-1.254252700750985E-002
8.5056639E-001	-1.259809594734268E-002
8.4956145E-001	-1.262141356668620E-002
8.4855652E-001	-1.269160626802990E-002
8.4755164E-001	-1.276840302429347E-002
8.4657854E-001	-1.305973616188329E-002
8.4557569E-001	-1.295876678297984E-002
8.4455371E-001	-1.321515509855525E-002
8.4356356E-001	-1.324215283914468E-002
8.4255838E-001	-1.331931136797604E-002
8.4155154E-001	-1.337359411521777E-002
8.4054542E-001	-1.349007616744619E-002
8.3956212E-001	-1.356925759862132E-002
8.3858019E-001	-1.357967936555693E-002
8.3755267E-001	-1.370246696156792E-002
8.3655512E-001	-1.385539256062979E-002
8.3556724E-001	-1.389673878542899E-002
8.3452231E-001	-1.404096590315515E-002
8.3353484E-001	-1.418374565398276E-002
8.3255464E-001	-1.410675550491838E-002
8.3157545E-001	-1.429118443277125E-002
8.3057702E-001	-1.429134964707149E-002
8.2956922E-001	-1.435120202063106E-002
8.2857370E-001	-1.453626199498587E-002
8.2756418E-001	-1.470402680902178E-002
8.2655567E-001	-1.477209820477185E-002
8.2553822E-001	-1.484675419033619E-002
8.2454795E-001	-1.483056780360199E-002
8.2358050E-001	-1.487632340494555E-002
8.2258773E-001	-1.491813725938897E-002
8.2160419E-001	-1.510456717434569E-002
8.2056671E-001	-1.509122245109398E-002
8.1959289E-001	-1.535234855701376E-002
8.1856579E-001	-1.541427286144831E-002
8.1757128E-001	-1.551009989582139E-002
8.1658548E-001	-1.558914258792388E-002
8.1559271E-001	-1.554124867288742E-002
8.1455678E-001	-1.586502782605783E-002
8.1357038E-001	-1.594647930060449E-002
8.1257945E-001	-1.595299147174681E-002
8.1155461E-001	-1.615949869564801E-002
8.1060678E-001	-1.613501620998198E-002
8.1018388E-001	-1.618021117215318E-002
8.1065768E-001	-5.965743601260710E-003
8.1171250E-001	-2.050684827222156E-003
8.1268263E-001	2.143574073373603E-005
8.1363845E-001	1.146981913069629E-003
8.1465924E-001	2.122925297436656E-003
8.1561619E-001	3.080080495637207E-003
8.1663424E-001	3.828555224843058E-003
8.1765914E-001	4.185147017518667E-003
8.1868994E-001	4.884525951507943E-003
8.1967843E-001	5.269172437200292E-003
8.2065368E-001	5.761459759403745E-003
8.2167447E-001	6.149713552513564E-003
8.2266456E-001	6.543770644494323E-003
8.2367617E-001	6.810028316898753E-003
8.2466286E-001	7.253349316963191E-003
8.2568520E-001	7.306087857319843E-003
8.2670510E-001	7.621128982897719E-003
8.2765543E-001	7.699707304786002E-003
8.2867432E-001	7.927751924473730E-003
8.2968366E-001	8.253251170906514E-003
8.3068293E-001	8.453530060119591E-003
8.3167964E-001	8.657435680227171E-003
8.3267254E-001	8.847264715949432E-003
8.3367217E-001	9.032059688812849E-003
8.3464748E-001	9.240504610254136E-003
8.3569545E-001	9.351811198436297E-003
8.3670688E-001	9.517663278647004E-003
8.3766407E-001	9.461694812721355E-003
8.3868057E-001	9.777309141247262E-003
8.3965892E-001	9.795182840614813E-003
8.4067696E-001	9.980557216345359E-003
8.4168893E-001	1.012313879457197E-002
8.4267730E-001	1.017141762877322E-002
8.4364814E-001	1.036868119493251E-002
8.4466815E-001	1.030765331056516E-002
8.4566998E-001	1.049402033940294E-002
8.4667987E-001	1.059270302571463E-002
8.4766239E-001	1.059880424247414E-002
8.4865868E-001	1.074450681431149E-002
8.4966117E-001	1.078041114028225E-002
8.5064942E-001	1.079517666725838E-002
8.5166401E-001	1.085723093861055E-002
8.5262287E-001	1.105112769111283E-002
8.5366637E-001	1.119926243041783E-002
8.5466468E-001	1.127700088253605E-002
8.5566086E-001	1.128851491097155E-002
8.5664856E-001	1.123644991512465E-002
8.5762513E-001	1.139622745449257E-002
8.5866457E-001	1.145419386302466E-002
8.5966051E-001	1.156288156900087E-002
8.6065876E-001	1.160827421107064E-002
8.6164171E-001	1.155955829752750E-002
8.6265594E-001	1.163036775761417E-002
8.6364728E-001	1.167529753323149E-002
8.6465341E-001	1.170486417402081E-002
8.6563474E-001	1.187499188679680E-002
8.6661828E-001	1.185739587276413E-002
8.6762273E-001	1.201563521986754E-002
8.6863804E-001	1.201082298903726E-002
8.6965656E-001	1.201284062292587E-002
8.7065083E-001	1.200058358629347E-002
8.7164873E-001	1.204380138020750E-002
8.7262267E-001	1.218940728411927E-002
8.7366414E-001	1.214008665081139E-002
8.7464714E-001	1.227662476792757E-002
8.7566078E-001	1.221217688008079E-002
8.7661016E-001	1.225243737057713E-002
8.7763828E-001	1.239031302871180E-002
8.7865537E-001	1.244069753406227E-002
8.7963867E-001	1.238436965976164E-002
8.8063318E-001	1.234933075662772E-002
8.8164002E-001	1.264056185382257E-002
8.8264626E-001	1.251679054864302E-002
8.8363504E-001	1.249125544418156E-002
8.8464272E-001	1.254154509642763E-002
8.8566005E-001	1.250725458540869E-002
8.8663453E-001	1.260786890250015E-002
8.8761890E-001	1.271980681472054E-002
8.8862300E-001	1.265819464069009E-002
8.8964814E-001	1.281708246848040E-002
8.9061052E-001	1.284215111546605E-002
8.9163101E-001	1.283934460879790E-002
8.9261657E-001	1.287408373952857E-002
8.9363247E-001	1.290641553452992E-002
8.9461815E-001	1.285024450784785E-002
8.9563537E-001	1.299386495918359E-002
8.9661688E-001	1.275221685357517E-002
8.9763254E-001	1.298450091962222E-002
8.9864701E-001	1.292448944166671E-002
8.9962238E-001	1.300435730149330E-002
9.0063167E-001	1.287560867692378E-002
9.0162122E-001	1.291507526325636E-002
9.0262836E-001	1.307217740849345E-002
9.0361667E-001	1.289569168730606E-002
9.0463728E-001	1.324877782462662E-002
9.0562046E-001	1.318864645468146E-002
9.0663594E-001	1.324374367608999E-002
9.0760529E-001	1.306615985335791E-002
9.0863454E-001	1.325622232620868E-002
9.0959829E-001	1.321077857761749E-002
9.1003317E-001	2.214869469853824E-002