Ewe/V	<I>/mA	
8.1895858E-001	-8.384831547737122E-001
8.1952733E-001	-6.705540174928775E-001
8.2053703E-001	-4.599107195002331E-001
8.2155019E-001	-3.303741793562123E-001
8.2253289E-001	-2.421420168830077E-001
8.2353401E-001	-1.759553132837428E-001
8.2453626E-001	-1.270434572684782E-001
8.2552958E-001	-8.832723136422116E-002
8.2654458E-001	-5.696337765807069E-002
8.2755858E-001	-2.898215326098975E-002
8.2930875E-001	8.442864660490101E-003
8.3106184E-001	4.611116255465389E-002
8.3206296E-001	5.999066228913663E-002
8.3305299E-001	7.238668685183969E-002
8.3406019E-001	8.394325061494334E-002
8.3505929E-001	9.381243435200315E-002
8.3604348E-001	1.033556969616464E-001
8.3705640E-001	1.120403812318629E-001
8.3805448E-001	1.202652304329808E-001
8.3907616E-001	1.268679809420269E-001
8.4006292E-001	1.338498394470662E-001
8.4105694E-001	1.396243823821548E-001
8.4204167E-001	1.447821972219068E-001
8.4306264E-001	1.509657705513150E-001
8.4405333E-001	1.556202021763768E-001
8.4505272E-001	1.608489761775780E-001
8.4605402E-001	1.649956833571197E-001
8.4705353E-001	1.688021479510815E-001
8.4804189E-001	1.734913792978565E-001
8.4905738E-001	1.775526881683618E-001
8.5007375E-001	1.807909915482419E-001
8.5104942E-001	1.838713499924380E-001
8.5203940E-001	1.879564352797463E-001
8.5304111E-001	1.913102292843787E-001
8.5404629E-001	1.935237198680023E-001
8.5505301E-001	1.962105890529027E-001
8.5604757E-001	1.993980911146447E-001
8.5703379E-001	2.024070122537935E-001
8.5804349E-001	2.038856921976231E-001
8.5902548E-001	2.067195270986613E-001
8.6003566E-001	2.085093349580562E-001
8.6102873E-001	2.110223733276755E-001
8.6205351E-001	2.135354704740979E-001
8.6304367E-001	2.151380964528986E-001
8.6403656E-001	2.172198553388527E-001
8.6501813E-001	2.185177769279107E-001
8.6603856E-001	2.207532506824170E-001
8.6702621E-001	2.226543601007309E-001
8.6802220E-001	2.239481283662221E-001
8.6902618E-001	2.261630686957190E-001
8.7003833E-001	2.273808461355253E-001
8.7103111E-001	2.286152937320161E-001
8.7201697E-001	2.306535897854092E-001
8.7303919E-001	2.315887533154137E-001
8.7402380E-001	2.335914897137430E-001
8.7504411E-001	2.346227672080423E-001
8.7604207E-001	2.362922070703153E-001
8.7703246E-001	2.381073340721844E-001
8.7802482E-001	2.387584943013890E-001
8.7904018E-001	2.393804144295348E-001
8.8002759E-001	2.415111652678923E-001
8.8103259E-001	2.423203739001319E-001
8.8204384E-001	2.435384712363078E-001
8.8302273E-001	2.446832849851091E-001
8.8403076E-001	2.451033656899302E-001
8.8503098E-001	2.463329175952831E-001
8.8603145E-001	2.474958145370096E-001
8.8701719E-001	2.487630101127761E-001
8.8802457E-001	2.502188023904135E-001
8.8902342E-001	2.496896222647694E-001
8.9005059E-001	2.517859398956515E-001
8.9102340E-001	2.528139620553711E-001
8.9202780E-001	2.541831132904114E-001
8.9301002E-001	2.542446656152615E-001
8.9403552E-001	2.565927333224645E-001
8.9501143E-001	2.565113692027001E-001
8.9603001E-001	2.572276969181599E-001
8.9702505E-001	2.576424764314045E-001
8.9802521E-001	2.578467600720220E-001
8.9901197E-001	2.592979424581339E-001
9.0005827E-001	2.600433549119374E-001
9.0101051E-001	2.606887523498809E-001
9.0202981E-001	2.616155216366880E-001
9.0299648E-001	2.626276369879239E-001
9.0403992E-001	2.625790861849158E-001
9.0501714E-001	2.634102588571192E-001
9.0601885E-001	2.641991940585684E-001
9.0701020E-001	2.652999461473280E-001
9.0802389E-001	2.658111082079517E-001
9.0900064E-001	2.661717492673130E-001
9.0975755E-001	2.664685212075719E-001
9.1005230E-001	2.616402421678812E-001
9.0946537E-001	9.651495084270012E-002
9.0848750E-001	-7.495762615184701E-004
9.0749717E-001	-4.209059085567557E-002
9.0650719E-001	-6.865282288183344E-002
9.0548325E-001	-8.731357885860935E-002
9.0448964E-001	-1.013685955290888E-001
9.0348738E-001	-1.137097982249945E-001
9.0248519E-001	-1.238202023539796E-001
9.0148693E-001	-1.322883542032081E-001
9.0049571E-001	-1.404538768498846E-001
8.9948332E-001	-1.472048034710394E-001
8.9851707E-001	-1.535265331104811E-001
8.9749664E-001	-1.591213689987643E-001
8.9649206E-001	-1.643184064887464E-001
8.9548653E-001	-1.697474903582283E-001
8.9448917E-001	-1.740402136411927E-001
8.9345306E-001	-1.796896206066778E-001
8.9247566E-001	-1.824614817871602E-001
8.9148390E-001	-1.860376014891592E-001
8.9048851E-001	-1.894965737980483E-001
8.8949955E-001	-1.932573910776727E-001
8.8850617E-001	-1.961487399207217E-001
8.8750374E-001	-1.993465476229579E-001
8.8648748E-001	-2.028106767296161E-001
8.8548440E-001	-2.055665414340579E-001
8.8449466E-001	-2.080627037341594E-001
8.8350350E-001	-2.104844599056778E-001
8.8247335E-001	-2.135845064573605E-001
8.8150394E-001	-2.155884754223130E-001
8.8049370E-001	-2.181507081259044E-001
8.7948161E-001	-2.201048953769105E-001
8.7848097E-001	-2.229088831227272E-001
8.7751067E-001	-2.241556964452474E-001
8.7651354E-001	-2.267261243865102E-001
8.7551278E-001	-2.288005149069536E-001
8.7449676E-001	-2.306422850686221E-001
8.7352574E-001	-2.321982411926409E-001
8.7250912E-001	-2.342352230852045E-001
8.7151521E-001	-2.361893929903289E-001
8.7050295E-001	-2.379953309945337E-001
8.6951506E-001	-2.399650699355540E-001
8.6849242E-001	-2.419366560255476E-001
8.6749929E-001	-2.423000514714246E-001
8.6649740E-001	-2.452494292519982E-001
8.6548209E-001	-2.471272939195231E-001
8.6450773E-001	-2.478132508177717E-001
8.6351812E-001	-2.499147839585518E-001
8.6252296E-001	-2.507098278599891E-001
8.6146420E-001	-2.528741379630641E-001
8.6051166E-001	-2.550458127580990E-001
8.5949683E-001	-2.555621581721217E-001
8.5852569E-001	-2.566146157526710E-001
8.5751212E-001	-2.583725775281591E-001
8.5651547E-001	-2.598130200575630E-001
8.5553712E-001	-2.619249128426091E-001
8.5449272E-001	-2.625616535596134E-001
8.5350567E-001	-2.638394921345428E-001
8.5250890E-001	-2.657924509094505E-001
8.5154641E-001	-2.669938979670397E-001
8.5050267E-001	-2.681406492160416E-001
8.4952664E-001	-2.689663956407449E-001
8.4851325E-001	-2.705280881944221E-001
8.4752303E-001	-2.717538202802328E-001
8.4653419E-001	-2.725190858925788E-001
8.4551936E-001	-2.745829821409033E-001
8.4451842E-001	-2.755254725408207E-001
8.4349138E-001	-2.759465391540692E-001
8.4251064E-001	-2.771581515876775E-001
8.4151971E-001	-2.787970414695629E-001
8.4053141E-001	-2.797789952924683E-001
8.3952570E-001	-2.808966286376942E-001
8.3854282E-001	-2.818090336966426E-001
8.3753240E-001	-2.829905100839420E-001
8.3651632E-001	-2.841910944941133E-001
8.3552158E-001	-2.856452550428603E-001
8.3452451E-001	-2.864079229637149E-001
8.3354115E-001	-2.873384712470894E-001
8.3252454E-001	-2.886161603964865E-001
8.3154398E-001	-2.900264054640287E-001
8.3052552E-001	-2.904869189434161E-001
8.2954091E-001	-2.921656990268575E-001
8.2852590E-001	-2.926540134681583E-001
8.2752597E-001	-2.937780362036495E-001
8.2654393E-001	-2.947640685468074E-001
8.2551908E-001	-2.957555084592762E-001
8.2453948E-001	-2.973779763560727E-001
8.2352245E-001	-2.983988407326637E-001
8.2254201E-001	-2.990240116034522E-001
8.2150316E-001	-3.002480587973773E-001
8.2051772E-001	-3.018689836996300E-001
8.1954241E-001	-3.022111916604135E-001
8.1851900E-001	-3.033210538948579E-001
8.1754917E-001	-3.043627612965381E-001
8.1651831E-001	-3.063451717348973E-001
8.1551749E-001	-3.068810927992058E-001
8.1451923E-001	-3.073078181284163E-001
8.1353468E-001	-3.085360017139474E-001
8.1253237E-001	-3.093360470504392E-001
8.1153619E-001	-3.100033326126228E-001
8.1060863E-001	-3.127050800928064E-001
8.1010747E-001	-3.080710215227946E-001
8.1066382E-001	-1.346910146543795E-001
8.1166404E-001	-2.764113238744238E-002
8.1264573E-001	1.964881886184844E-002
8.1365013E-001	4.865382514415428E-002
8.1465018E-001	6.976393753171184E-002
8.1562871E-001	8.607581021755695E-002
8.1663793E-001	9.989623262340053E-002
8.1763941E-001	1.109428640985342E-001
8.1865740E-001	1.204265147486393E-001
8.1965703E-001	1.289069618408891E-001
8.2066613E-001	1.369696279806607E-001
8.2164407E-001	1.435610261719891E-001
8.2266444E-001	1.497101522206019E-001
8.2363582E-001	1.562709830727225E-001
8.2463354E-001	1.605246948311110E-001
8.2563335E-001	1.656380409969851E-001
8.2665491E-001	1.702245299109364E-001
8.2763940E-001	1.747183315843968E-001
8.2866430E-001	1.786431951655294E-001
8.2962656E-001	1.823554981189472E-001
8.3066499E-001	1.861810120495246E-001
8.3166951E-001	1.894668138637727E-001
8.3264506E-001	1.928514374627009E-001
8.3362472E-001	1.958998316743734E-001
8.3463728E-001	1.985713128880084E-001
8.3564258E-001	2.014519441484784E-001
8.3663559E-001	2.043729746170968E-001
8.3765340E-001	2.062037556509799E-001
8.3863938E-001	2.086173787376739E-001
8.3964562E-001	2.111978345395389E-001
8.4064686E-001	2.131122627631872E-001
8.4164220E-001	2.157661208313786E-001
8.4264153E-001	2.175125050513697E-001
8.4365457E-001	2.200929560025955E-001
8.4464014E-001	2.208339185065906E-001
8.4567195E-001	2.232216646144582E-001
8.4663868E-001	2.254327626045178E-001
8.4763211E-001	2.269721229741766E-001
8.4864867E-001	2.282087473819665E-001
8.4962559E-001	2.304439980976493E-001
8.5065806E-001	2.316866231073321E-001
8.5167092E-001	2.334512189522181E-001
8.5263145E-001	2.360202330354326E-001
8.5363668E-001	2.364556157521704E-001
8.5465068E-001	2.373406778270795E-001
8.5561079E-001	2.383310347019388E-001
8.5664487E-001	2.399815878727365E-001
8.5765022E-001	2.415289538395085E-001
8.5863799E-001	2.427776710182004E-001
8.5962462E-001	2.434987838819831E-001
8.6063081E-001	2.446604017944414E-001
8.6165905E-001	2.461307658555186E-001
8.6265326E-001	2.473860602153266E-001
8.6362487E-001	2.479368080385029E-001
8.6462051E-001	2.488867757169324E-001
8.6562550E-001	2.503705417685618E-001
8.6661434E-001	2.508171892259279E-001
8.6762494E-001	2.518918221661207E-001
8.6863410E-001	2.528035566469442E-001
8.6963195E-001	2.538645024566608E-001
8.7066460E-001	2.548088601324698E-001
8.7163091E-001	2.557307564808697E-001
8.7262118E-001	2.560855950642784E-001
8.7360477E-001	2.571145270485442E-001
8.7463069E-001	2.589980241997800E-001
8.7564242E-001	2.592861268979823E-001
8.7661254E-001	2.595403283161835E-001
8.7763542E-001	2.602496026083818E-001
8.7862295E-001	2.611406698771246E-001
8.7963438E-001	2.616240475068077E-001
8.8063926E-001	2.628217874250063E-001
8.8164151E-001	2.631979109719396E-001
8.8262767E-001	2.643100104501679E-001
8.8360876E-001	2.644975365708691E-001
8.8461262E-001	2.654658655584283E-001
8.8561988E-001	2.662393079760168E-001
8.8663089E-001	2.661043876368154E-001
8.8760710E-001	2.671721817718620E-001
8.8860351E-001	2.677209203700643E-001
8.8960958E-001	2.690704287185035E-001
8.9060783E-001	2.691355894785374E-001
8.9165092E-001	2.700104676963144E-001
8.9262414E-001	2.701612097573369E-001
8.9361066E-001	2.714124281336088E-001
8.9462143E-001	2.724441712360006E-001
8.9561743E-001	2.724434700277132E-001
8.9660132E-001	2.726840335461822E-001
8.9762223E-001	2.731134218370759E-001
8.9863193E-001	2.734618504893871E-001
8.9962429E-001	2.740723812797430E-001
9.0063375E-001	2.751543839824295E-001
9.0161729E-001	2.753544832424577E-001
9.0262127E-001	2.755767584571425E-001
9.0363133E-001	2.758495883188319E-001
9.0462375E-001	2.771012554617802E-001
9.0561157E-001	2.774376865062453E-001
9.0661967E-001	2.782214087071937E-001
9.0759611E-001	2.779788635671139E-001
9.0860909E-001	2.785207947146977E-001
9.0957880E-001	2.795843030617124E-001
9.1007143E-001	2.755503697054729E-001
9.0947312E-001	1.088941058810131E-001
9.0851396E-001	1.082768377970449E-002
9.0747583E-001	-3.059368272240848E-002
9.0649319E-001	-5.734623758730284E-002
9.0550256E-001	-7.592473411285838E-002
9.0452605E-001	-9.119099592013913E-002
9.0347511E-001	-1.031281495039969E-001
9.0249908E-001	-1.133392377847079E-001
9.0151221E-001	-1.225058309759732E-001
9.0049785E-001	-1.297882642183034E-001
8.9950031E-001	-1.372654158622023E-001
8.9849377E-001	-1.438518205476509E-001
8.9747316E-001	-1.501239731571538E-001
8.9651686E-001	-1.554554008438975E-001
8.9548892E-001	-1.603551660535026E-001
8.9450657E-001	-1.650768318860272E-001
8.9350569E-001	-1.697896550712958E-001
8.9251798E-001	-1.737541872619958E-001
8.9151466E-001	-1.778466085541159E-001
8.9052373E-001	-1.810650055995202E-001
8.8949913E-001	-1.848357358378250E-001
8.8852036E-001	-1.882566668921042E-001
8.8752395E-001	-1.909746333904976E-001
8.8651085E-001	-1.943394096775182E-001
8.8551897E-001	-1.972975867878018E-001
8.8449651E-001	-2.003317071745783E-001
8.8352573E-001	-2.028018236160274E-001
8.8251579E-001	-2.050688573055795E-001
8.8151699E-001	-2.079821351863855E-001
8.8053018E-001	-2.100767515625592E-001
8.7952405E-001	-2.131726506373113E-001
8.7853128E-001	-2.152972491199352E-001
8.7753487E-001	-2.172652331905224E-001
8.7654269E-001	-2.195039354394090E-001
8.7554222E-001	-2.219244161258560E-001
8.7451780E-001	-2.238114065387169E-001
8.7350422E-001	-2.256180385981370E-001
8.7249613E-001	-2.275304995968730E-001
8.7152517E-001	-2.297184203440930E-001
8.7053257E-001	-2.313784586731340E-001
8.6952841E-001	-2.330195120561651E-001
8.6852753E-001	-2.350122217709822E-001
8.6751825E-001	-2.366293774038146E-001
8.6651450E-001	-2.386925690936748E-001
8.6553490E-001	-2.399302020850067E-001
8.6453491E-001	-2.419552857107989E-001
8.6351418E-001	-2.435780189957255E-001
8.6252576E-001	-2.449131012350937E-001
8.6150962E-001	-2.468625995744422E-001
8.6051661E-001	-2.481483696028581E-001
8.5953486E-001	-2.492782020320492E-001
8.5852402E-001	-2.510709070290105E-001
8.5752702E-001	-2.523551319156667E-001
8.5650980E-001	-2.542648576458699E-001
8.5554409E-001	-2.557345455926328E-001
8.5452884E-001	-2.567861108368041E-001
8.5353631E-001	-2.583139220045678E-001
8.5253042E-001	-2.602822408263212E-001
8.5152715E-001	-2.612904053595320E-001
8.5050523E-001	-2.623013065248312E-001
8.4952790E-001	-2.642666444234121E-001
8.4854066E-001	-2.655851567784944E-001
8.4752339E-001	-2.665819301425159E-001
8.4653682E-001	-2.673103157689578E-001
8.4555751E-001	-2.684717763525736E-001
8.4451997E-001	-2.700564060101494E-001
8.4353763E-001	-2.716621162059387E-001
8.4254551E-001	-2.721582901043185E-001
8.4153080E-001	-2.736878219681467E-001
8.4054226E-001	-2.748998641812537E-001
8.3954012E-001	-2.760925974386446E-001
8.3853638E-001	-2.766892601115002E-001
8.3754623E-001	-2.786638181294414E-001
8.3652669E-001	-2.796005606651306E-001
8.3554810E-001	-2.804537315128579E-001
8.3454007E-001	-2.819091287545028E-001
8.3352536E-001	-2.829307507102667E-001
8.3253109E-001	-2.843362076414946E-001
8.3153749E-001	-2.855056770042395E-001
8.3053195E-001	-2.861985541724876E-001
8.2952923E-001	-2.874852656386788E-001
8.2853913E-001	-2.885559459423841E-001
8.2751870E-001	-2.895966664525771E-001
8.2653958E-001	-2.904085911965621E-001
8.2555884E-001	-2.914665636037359E-001
8.2453889E-001	-2.933310005399907E-001
8.2353586E-001	-2.941235831886932E-001
8.2253969E-001	-2.945393565524772E-001
8.2153267E-001	-2.955433162601859E-001
8.2054919E-001	-2.967099233582189E-001
8.1954992E-001	-2.978170635954784E-001
8.1854957E-001	-2.988229507528644E-001
8.1754327E-001	-3.002422521563455E-001
8.1653702E-001	-3.018197292048068E-001
8.1552601E-001	-3.026132378468489E-001
8.1454623E-001	-3.033695777153795E-001
8.1352305E-001	-3.041989678103052E-001
8.1257236E-001	-3.053805586468017E-001
8.1155503E-001	-3.059066284913561E-001
8.1057906E-001	-3.086438705601413E-001
8.1005394E-001	-3.052711146218434E-001
8.1067288E-001	-1.305058255734108E-001
8.1165904E-001	-2.282993501178986E-002
8.1267601E-001	2.385412368231404E-002
8.1365138E-001	5.214135975822698E-002
8.1465864E-001	7.322541388243242E-002
8.1566423E-001	8.987690752837807E-002
8.1665528E-001	1.041733525861572E-001
8.1767881E-001	1.154894295032138E-001
8.1864446E-001	1.240965733110596E-001
8.1967616E-001	1.319641818473536E-001
8.2062179E-001	1.403666081476134E-001
8.2169437E-001	1.470006791124536E-001
8.2267147E-001	1.531430827324387E-001
8.2365793E-001	1.597800753726113E-001
8.2467026E-001	1.640212507271726E-001
8.2566106E-001	1.690345559683123E-001
8.2666367E-001	1.736473024357119E-001
8.2767135E-001	1.786435204170020E-001
8.2866353E-001	1.815656616559465E-001
8.2967430E-001	1.852089152153996E-001
8.3066958E-001	1.897474088214552E-001
8.3167052E-001	1.920688557050512E-001
8.3265483E-001	1.951270853945370E-001
8.3364677E-001	1.989032323601560E-001
8.3465827E-001	2.015612216847429E-001
8.3566064E-001	2.049844842792184E-001
8.3667481E-001	2.071848167235868E-001
8.3765870E-001	2.091595354981521E-001
8.3867472E-001	2.118314244758546E-001
8.3967376E-001	2.139306102827616E-001
8.4066367E-001	2.157325154403227E-001
8.4163815E-001	2.180972261121501E-001
8.4265691E-001	2.206210976518266E-001
8.4364790E-001	2.221514260551585E-001
8.4464288E-001	2.248721975807317E-001
8.4562492E-001	2.261496417146796E-001
8.4666014E-001	2.279105206382368E-001
8.4763354E-001	2.295075621223077E-001
8.4864193E-001	2.310591837029063E-001
8.4963298E-001	2.329023800816181E-001
8.5064340E-001	2.342834715834927E-001
8.5165739E-001	2.357394465426390E-001
8.5262710E-001	2.386016537469849E-001
8.5364532E-001	2.392635447645772E-001
8.5465342E-001	2.400989800872697E-001
8.5563987E-001	2.417947387374531E-001
8.5662919E-001	2.428596593025665E-001
8.5764724E-001	2.439140846383654E-001
8.5866344E-001	2.453559911292462E-001
8.5963970E-001	2.457345627351772E-001
8.6062038E-001	2.471553415525705E-001
8.6164373E-001	2.483494619631927E-001
8.6263335E-001	2.492622241326092E-001
8.6363822E-001	2.503925181356150E-001
8.6461788E-001	2.516654460794394E-001
8.6565119E-001	2.527686316882161E-001
8.6663109E-001	2.533066987784363E-001
8.6761832E-001	2.543838808778673E-001
8.6865634E-001	2.557144579995017E-001
8.6965609E-001	2.562056573935685E-001
8.7067008E-001	2.575709617231041E-001
8.7164426E-001	2.582526021740517E-001
8.7262112E-001	2.581464423177153E-001
8.7363327E-001	2.594320544093454E-001
8.7461370E-001	2.605564707062324E-001
8.7565154E-001	2.609891849311281E-001
8.7665981E-001	2.622786240600465E-001
8.7765199E-001	2.631742969258799E-001
8.7862504E-001	2.637197430918210E-001
8.7965250E-001	2.639549015245106E-001
8.8063669E-001	2.646254912122271E-001
8.8164312E-001	2.652577814232151E-001
8.8263440E-001	2.659403378816545E-001
8.8362455E-001	2.668497039315612E-001
8.8464063E-001	2.675556934749093E-001
8.8562679E-001	2.680688133566744E-001
8.8664317E-001	2.688440181470169E-001
8.8761902E-001	2.699751293597132E-001
8.8861161E-001	2.702471789283045E-001
8.8960928E-001	2.709281746712005E-001
8.9063287E-001	2.710351600415191E-001
8.9160889E-001	2.723777237762177E-001
8.9260614E-001	2.725177773326233E-001
8.9363724E-001	2.740006991103989E-001
8.9463943E-001	2.744905465385994E-001
8.9561743E-001	2.743826923477997E-001
8.9664251E-001	2.742295235447190E-001
8.9762473E-001	2.751533746874584E-001
8.9863998E-001	2.754789768562942E-001
8.9962810E-001	2.761091702721181E-001
9.0063238E-001	2.767959767693866E-001
9.0160906E-001	2.775548732994753E-001
9.0264136E-001	2.777572482720867E-001
9.0363497E-001	2.777327188911540E-001
9.0463603E-001	2.785198499138160E-001
9.0561354E-001	2.786800241253036E-001
9.0660805E-001	2.795425842050472E-001
9.0763623E-001	2.803469576821149E-001
9.0863067E-001	2.808268693689679E-001
9.0958869E-001	2.806874173693359E-001
9.1010964E-001	2.751851635319844E-001
9.0950000E-001	1.102766791720777E-001
9.0848666E-001	1.260257942183471E-002
9.0748638E-001	-2.915442505440691E-002
9.0649641E-001	-5.561252760041169E-002
9.0548688E-001	-7.397580972691570E-002
9.0448868E-001	-8.940675655483354E-002
9.0347064E-001	-1.014409314246019E-001
9.0248698E-001	-1.115661424183689E-001
9.0148634E-001	-1.206165103034838E-001
9.0049815E-001	-1.282044381756955E-001
8.9950287E-001	-1.357522185943605E-001
8.9849985E-001	-1.418306080417496E-001
8.9749354E-001	-1.477385794148882E-001
8.9650488E-001	-1.531067764153704E-001
8.9549327E-001	-1.584576179092330E-001
8.9450431E-001	-1.628862036159260E-001
8.9349067E-001	-1.689193348081135E-001
8.9249676E-001	-1.724452858195744E-001
8.9149827E-001	-1.759384480279143E-001
8.9051586E-001	-1.794761874609517E-001
8.8952017E-001	-1.838648029887624E-001
8.8850635E-001	-1.863902239775697E-001
8.8751876E-001	-1.899479138276847E-001
8.8650101E-001	-1.928426210716776E-001
8.8553149E-001	-1.954980001189846E-001
8.8452238E-001	-1.991165315913446E-001
8.8354284E-001	-2.010938964732398E-001
8.8249010E-001	-2.036448393353361E-001
8.8150322E-001	-2.065275462551246E-001
8.8050318E-001	-2.090020648772923E-001
8.7951297E-001	-2.111684372001842E-001
8.7853718E-001	-2.136068014143442E-001
8.7749708E-001	-2.165260141482568E-001
8.7652147E-001	-2.179591200805991E-001
8.7551504E-001	-2.203106644770338E-001
8.7448180E-001	-2.226177825359628E-001
8.7350142E-001	-2.246826739800679E-001
8.7250167E-001	-2.265469995974041E-001
8.7152433E-001	-2.283957667467709E-001
8.7051857E-001	-2.301577042736523E-001
8.6953306E-001	-2.320599824500571E-001
8.6851007E-001	-2.340068337378189E-001
8.6749870E-001	-2.352555670206318E-001
8.6649740E-001	-2.369718100461692E-001
8.6553097E-001	-2.390482681415351E-001
8.6448950E-001	-2.402303236174487E-001
8.6349189E-001	-2.427636501638011E-001
8.6250198E-001	-2.433792642809233E-001
8.6151642E-001	-2.455817201278272E-001
8.6051702E-001	-2.466537582222368E-001
8.5952872E-001	-2.483438369041933E-001
8.5852611E-001	-2.502819325826646E-001
8.5753220E-001	-2.514570601957096E-001
8.5651314E-001	-2.526036715652378E-001
8.5553664E-001	-2.542508670594534E-001
8.5451823E-001	-2.559415940454013E-001
8.5351145E-001	-2.569777434174387E-001
8.5252053E-001	-2.584672845012324E-001
8.5152662E-001	-2.602066591951164E-001
8.5051763E-001	-2.606663105284997E-001
8.4951663E-001	-2.628858057109424E-001
8.4853619E-001	-2.640145352989838E-001
8.4749967E-001	-2.653165491970464E-001
8.4651011E-001	-2.663975446743674E-001
8.4555566E-001	-2.676099200939954E-001
8.4451747E-001	-2.684749119087222E-001
8.4354204E-001	-2.698731531854719E-001
8.4252471E-001	-2.710712821895458E-001
8.4153873E-001	-2.721823777537784E-001
8.4053504E-001	-2.735185405601648E-001
8.3951461E-001	-2.747306706021631E-001
8.3853096E-001	-2.759815378942410E-001
8.3753985E-001	-2.775372207009528E-001
8.3652943E-001	-2.781469245803432E-001
8.3549553E-001	-2.795707853252269E-001
8.3451754E-001	-2.805921446997670E-001
8.3352906E-001	-2.818521832426388E-001
8.3251590E-001	-2.830817457029799E-001
8.3153790E-001	-2.838031681151023E-001
8.3053339E-001	-2.845880795891089E-001
8.2954025E-001	-2.863562756166269E-001
8.2849348E-001	-2.870751139449164E-001
8.2753485E-001	-2.881313957429192E-001
8.2652801E-001	-2.895741386390789E-001
8.2553434E-001	-2.904643505915177E-001
8.2453907E-001	-2.914820575776185E-001
8.2354075E-001	-2.930365189030347E-001
8.2254964E-001	-2.938711563539140E-001
8.2153016E-001	-2.944238379390693E-001
8.2053113E-001	-2.960473182093759E-001
8.1953853E-001	-2.966968180456511E-001
8.1852728E-001	-2.980584803606485E-001
8.1754112E-001	-2.987047679618824E-001
8.1652987E-001	-3.008813883643602E-001
8.1551731E-001	-3.012443356888568E-001
8.1450981E-001	-3.022441502091366E-001
8.1352764E-001	-3.033685624444220E-001
8.1252599E-001	-3.041863135165622E-001
8.1152064E-001	-3.047288990734762E-001
8.1057376E-001	-3.076340340873376E-001
8.1008452E-001	-3.008078038692474E-001
8.1062055E-001	-1.293632584407720E-001
8.1164879E-001	-2.177381905095081E-002
8.1264317E-001	2.440794878930314E-002
8.1364435E-001	5.405880969354054E-002
8.1465018E-001	7.468637660430344E-002
8.1564265E-001	9.064010360614505E-002
8.1665421E-001	1.047927229794577E-001
8.1766140E-001	1.161606540489530E-001
8.1868476E-001	1.251350082521743E-001
8.1966311E-001	1.335890913615003E-001
8.2064939E-001	1.415417737767304E-001
8.2164961E-001	1.483423883328223E-001
8.2266092E-001	1.540715565723889E-001
8.2363582E-001	1.605390263074593E-001
8.2462734E-001	1.655722839964768E-001
8.2564318E-001	1.704289598985478E-001
8.2661718E-001	1.739616704095781E-001
8.2765520E-001	1.789338314750544E-001
8.2865793E-001	1.833103544518560E-001
8.2969445E-001	1.868544158318808E-001
8.3065009E-001	1.906531690619890E-001
8.3163315E-001	1.938420066403028E-001
8.3262956E-001	1.965166519965145E-001
8.3363986E-001	1.996758872022234E-001
8.3466440E-001	2.026807118284841E-001
8.3566034E-001	2.052781975879858E-001
8.3666211E-001	2.081142517013690E-001
8.3765090E-001	2.104368701240880E-001
8.3866340E-001	2.128475798138729E-001
8.3965707E-001	2.150677750533873E-001
8.4066767E-001	2.170146828543196E-001
8.4165978E-001	2.196695879231108E-001
8.4265834E-001	2.222048190758676E-001
8.4364694E-001	2.228453177182630E-001
8.4465498E-001	2.249430648516872E-001
8.4565073E-001	2.269371511518132E-001
8.4664840E-001	2.289008846791050E-001
8.4762883E-001	2.305642597687747E-001
8.4864539E-001	2.324843231148814E-001
8.4964633E-001	2.340076980698447E-001
8.5067499E-001	2.349991735019210E-001
8.5165334E-001	2.368603668098030E-001
8.5262400E-001	2.390900175182020E-001
8.5363865E-001	2.398217777048975E-001
8.5462880E-001	2.406978651544911E-001
8.5566527E-001	2.426527301496312E-001
8.5664076E-001	2.432322481440177E-001
8.5765648E-001	2.450411592920627E-001
8.5864919E-001	2.459141050154958E-001
8.5967004E-001	2.470741995299868E-001
8.6063975E-001	2.482606136084864E-001
8.6162883E-001	2.493557881098250E-001
8.6266118E-001	2.507315028148418E-001
8.6363727E-001	2.516318371571202E-001
8.6463106E-001	2.524640538160590E-001
8.6567122E-001	2.536636971506407E-001
8.6664462E-001	2.539914037721864E-001
8.6764276E-001	2.550646118147104E-001
8.6864072E-001	2.562019456591877E-001
8.6965865E-001	2.568331335981688E-001
8.7063533E-001	2.577799373409828E-001
8.7163615E-001	2.588751685495185E-001
8.7262660E-001	2.595428768027994E-001
8.7363130E-001	2.601531671049702E-001
8.7466496E-001	2.617546404556697E-001
8.7564284E-001	2.623091021345725E-001
8.7664688E-001	2.628884806245981E-001
8.7761587E-001	2.631207449723871E-001
8.7863392E-001	2.646116412555184E-001
8.7966055E-001	2.648987895291715E-001
8.8064021E-001	2.653953927155168E-001
8.8162190E-001	2.667154940362606E-001
8.8263655E-001	2.668024178904798E-001
8.8364714E-001	2.679810349622542E-001
8.8461363E-001	2.685597007576797E-001
8.8562071E-001	2.684098134438186E-001
8.8660800E-001	2.698781253614770E-001
8.8763517E-001	2.703259940155691E-001
8.8861418E-001	2.710448309210047E-001
8.8961518E-001	2.718754393410779E-001
8.9063120E-001	2.721098665561950E-001
8.9162588E-001	2.723740241490304E-001
8.9261782E-001	2.734926958154478E-001
8.9362365E-001	2.743862779821491E-001
8.9464420E-001	2.754250123269024E-001
8.9561039E-001	2.751957833922170E-001
8.9661974E-001	2.752309355419138E-001
8.9761573E-001	2.760199262864074E-001
8.9864111E-001	2.764796377159664E-001
8.9963949E-001	2.769333800663150E-001
9.0062326E-001	2.777582901892144E-001
9.0160668E-001	2.779922383423479E-001
9.0260369E-001	2.784423481983440E-001
9.0363032E-001	2.784443183077714E-001
9.0459949E-001	2.793509464503989E-001
9.0560204E-001	2.804030280353302E-001
9.0662223E-001	2.807283179782765E-001
9.0762478E-001	2.809404831948790E-001
9.0862447E-001	2.815230362789913E-001
9.0956402E-001	2.813056945742574E-001
9.1009432E-001	2.766727549689159E-001
9.0949559E-001	1.111831228481608E-001
9.0850019E-001	1.368761947792840E-002
9.0753204E-001	-2.807124168935435E-002
9.0649176E-001	-5.548053297873878E-002
9.0548044E-001	-7.353099678099784E-002
9.0451753E-001	-8.787738403124312E-002
9.0347403E-001	-1.012074059496321E-001
9.0248632E-001	-1.104164579689190E-001
9.0148550E-001	-1.196957292850122E-001
9.0047932E-001	-1.274439823658513E-001
8.9949143E-001	-1.349777116103922E-001
8.9847791E-001	-1.411797586026495E-001
8.9748853E-001	-1.475107351887142E-001
8.9650041E-001	-1.525990771673000E-001
8.9549243E-001	-1.583998856108844E-001
8.9450473E-001	-1.625837939403323E-001
8.9350790E-001	-1.683602277503424E-001
8.9248550E-001	-1.721193534710133E-001
8.9148754E-001	-1.751645713294341E-001
8.9052403E-001	-1.790201258328219E-001
8.8951439E-001	-1.828195660556156E-001
8.8850182E-001	-1.859057546049975E-001
8.8749909E-001	-1.893134264456517E-001
8.8649863E-001	-1.926010239403693E-001
8.8551092E-001	-1.950642935957552E-001
8.8451719E-001	-1.981245176349242E-001
8.8350856E-001	-2.007639439155657E-001
8.8251597E-001	-2.033783502023043E-001
8.8152498E-001	-2.059976554915512E-001
8.8052213E-001	-2.078393154725839E-001
8.7950367E-001	-2.110553867338842E-001
8.7851512E-001	-2.131215489547068E-001
8.7750518E-001	-2.152004535827363E-001
8.7651867E-001	-2.177791480854558E-001
8.7552929E-001	-2.201294194156720E-001
8.7451106E-001	-2.219257948713158E-001
8.7350523E-001	-2.242346164097802E-001
8.7249380E-001	-2.250469121564582E-001
8.7151146E-001	-2.276662761966382E-001
8.7051934E-001	-2.299117196816951E-001
8.6950880E-001	-2.316038083129870E-001
8.6855000E-001	-2.330322503759019E-001
8.6751795E-001	-2.340713785573216E-001
8.6651433E-001	-2.361736362023885E-001
8.6553603E-001	-2.382031252426609E-001
8.6450386E-001	-2.400231301241247E-001
8.6350560E-001	-2.415604170463557E-001
8.6250854E-001	-2.428011697742880E-001
8.6151135E-001	-2.456763584373718E-001
8.6053544E-001	-2.464090300879128E-001
8.5950416E-001	-2.473669029099668E-001
8.5852569E-001	-2.483869888043655E-001
8.5751677E-001	-2.508680423359486E-001
8.5651165E-001	-2.522185534342301E-001
8.5550207E-001	-2.537790278179775E-001
8.5452253E-001	-2.551098180313904E-001
8.5351181E-001	-2.557990306005293E-001
8.5250086E-001	-2.580846863265105E-001
8.5150707E-001	-2.596182239552334E-001
8.5053682E-001	-2.610075430582368E-001
8.4954447E-001	-2.615433677306616E-001
8.4851629E-001	-2.632303140902268E-001
8.4751099E-001	-2.647430927285706E-001
8.4652299E-001	-2.658054564510361E-001
8.4551257E-001	-2.665583693111913E-001
8.4452468E-001	-2.679424188875901E-001
8.4350640E-001	-2.694394838375351E-001
8.4252107E-001	-2.709612303361708E-001
8.4151089E-001	-2.715224132148748E-001
8.4054410E-001	-2.729883835547500E-001
8.3953458E-001	-2.742606147399376E-001
8.3856654E-001	-2.751149806556181E-001
8.3753884E-001	-2.761854429781030E-001
8.3652973E-001	-2.779384931911597E-001
8.3556354E-001	-2.787934819805533E-001
8.3454168E-001	-2.800381758198540E-001
8.3353245E-001	-2.810736234662010E-001
8.3251733E-001	-2.819377771682205E-001
8.3153909E-001	-2.833264490796454E-001
8.3053809E-001	-2.842848608011579E-001
8.2953936E-001	-2.859242643074440E-001
8.2854152E-001	-2.865002723152019E-001
8.2755142E-001	-2.874709344469011E-001
8.2652915E-001	-2.888823348459679E-001
8.2554352E-001	-2.896366228815159E-001
8.2454139E-001	-2.907902284577059E-001
8.2354987E-001	-2.919624644693810E-001
8.2252800E-001	-2.934128883708671E-001
8.2155514E-001	-2.941516034253344E-001
8.2054514E-001	-2.950827867672263E-001
8.1953609E-001	-2.963869741134735E-001
8.1855536E-001	-2.971665739702676E-001
8.1755382E-001	-2.981679235171120E-001
8.1652468E-001	-3.002672566411393E-001
8.1554848E-001	-3.005365440363252E-001
8.1450313E-001	-3.017304523899725E-001
8.1354314E-001	-3.023285483165328E-001
8.1252724E-001	-3.031249115916177E-001
8.1152958E-001	-3.043041104812980E-001
8.1058908E-001	-3.066631903930102E-001
8.1005013E-001	-3.000861236027319E-001
8.1067109E-001	-1.286927145667733E-001
8.1168437E-001	-2.127248384673902E-002
8.1266809E-001	2.525383963155856E-002
8.1367731E-001	5.424440991676749E-002
8.1464356E-001	7.491687432371297E-002
8.1566387E-001	9.134519259936924E-002
8.1668061E-001	1.056931227018748E-001
8.1766820E-001	1.164554849836148E-001
8.1867611E-001	1.263786967352241E-001
8.1967443E-001	1.341369159959466E-001
8.2070082E-001	1.420460367032015E-001
8.2166982E-001	1.488219638251601E-001
8.2267803E-001	1.543442907924252E-001
8.2366508E-001	1.610082597471778E-001
8.2467908E-001	1.657068335011398E-001
8.2568121E-001	1.708983458940772E-001
8.2667488E-001	1.750936836081873E-001
8.2766259E-001	1.788899449812661E-001
8.2867098E-001	1.836257776530048E-001
8.2966375E-001	1.872241176638965E-001
8.3065861E-001	1.910141857159845E-001
8.3168119E-001	1.938762350602903E-001
8.3265865E-001	1.974363203755491E-001
8.3363914E-001	2.001132173593052E-001
8.3466166E-001	2.030693182152592E-001
8.3567542E-001	2.059560505828508E-001
8.3666754E-001	2.087641923765964E-001
8.3766866E-001	2.109556071486121E-001
8.3868903E-001	2.137431517734922E-001
8.3966529E-001	2.149814713435867E-001
8.4065646E-001	2.175276841476768E-001
8.4168196E-001	2.196436390772261E-001
8.4265751E-001	2.215748914879638E-001
8.4367412E-001	2.235516801140172E-001
8.4466368E-001	2.255592366111367E-001
8.4564614E-001	2.274823263804953E-001
8.4664869E-001	2.291501700981629E-001
8.4764069E-001	2.310527512777805E-001
8.4864163E-001	2.327811035146530E-001
8.4965634E-001	2.341593299837164E-001
8.5066670E-001	2.354808646228372E-001
8.5164171E-001	2.368825999502513E-001
8.5262930E-001	2.392610158193510E-001
8.5364234E-001	2.399339744329665E-001
8.5463023E-001	2.415888657043173E-001
8.5563707E-001	2.430040320743698E-001
8.5664582E-001	2.439946498100953E-001
8.5764223E-001	2.450098514737986E-001
8.5862547E-001	2.459172376224572E-001
8.5965049E-001	2.469028270958624E-001
8.6064136E-001	2.489390060719517E-001
8.6164993E-001	2.502815182993410E-001
8.6265135E-001	2.509905596832853E-001
8.6366272E-001	2.517975151745810E-001
8.6463273E-001	2.527027304232536E-001
8.6565965E-001	2.541084383200438E-001
8.6664063E-001	2.543519352717949E-001
8.6762744E-001	2.552453382716839E-001
8.6864954E-001	2.564987204968929E-001
8.6964905E-001	2.575159341148621E-001
8.7063450E-001	2.585489282436262E-001
8.7164342E-001	2.597175365727811E-001
8.7264431E-001	2.601737593455864E-001
8.7362075E-001	2.607754243848235E-001
8.7463713E-001	2.615078872121455E-001
8.7564427E-001	2.625907437824138E-001
8.7666172E-001	2.633283182254273E-001
8.7764394E-001	2.636585435830066E-001
8.7862557E-001	2.641739908398857E-001
8.7964904E-001	2.653930010274062E-001
8.8063687E-001	2.661294614275291E-001
8.8162929E-001	2.673003721671798E-001
8.8261741E-001	2.676705947249300E-001
8.8364488E-001	2.680642959247872E-001
8.8463581E-001	2.690013744868338E-001
8.8565040E-001	2.693353262988649E-001
8.8663369E-001	2.700143955492722E-001
8.8761395E-001	2.707853369518292E-001
8.8865662E-001	2.713178281879260E-001
8.8964641E-001	2.721840738474087E-001
8.9062566E-001	2.726919670951449E-001
8.9160734E-001	2.728495098029589E-001
8.9260912E-001	2.734439924307583E-001
8.9360881E-001	2.749879379505611E-001
8.9462143E-001	2.754502203574196E-001
8.9562023E-001	2.753356791411834E-001
8.9664251E-001	2.762739177689797E-001
8.9762807E-001	2.764101614658221E-001
8.9863873E-001	2.763483482154308E-001
8.9961112E-001	2.780321713847416E-001
9.0064418E-001	2.782318713143468E-001
9.0163893E-001	2.785047272013303E-001
9.0262306E-001	2.792011498628807E-001
9.0363890E-001	2.794505104474334E-001
9.0459949E-001	2.795574971371244E-001
9.0562356E-001	2.803930297442196E-001
9.0662289E-001	2.809759981982007E-001
9.0761286E-001	2.814559054095310E-001
9.0863103E-001	2.820220288251435E-001
9.0956599E-001	2.821327158308131E-001
9.1008663E-001	2.840678989887238E-001