Ewe/V	<I>/mA	
8.1908083E-001	-8.267983794212341E-001
8.1960905E-001	-6.571576955935168E-001
8.2061076E-001	-4.512631978011772E-001
8.2160485E-001	-3.235415567178284E-001
8.2259864E-001	-2.357676269150235E-001
8.2358259E-001	-1.714530936183616E-001
8.2459807E-001	-1.225216129419597E-001
8.2560188E-001	-8.373113845785474E-002
8.2660341E-001	-5.255449776046184E-002
8.2759678E-001	-2.588220191440394E-002
8.2936496E-001	1.072049948367254E-002
8.3111823E-001	4.856731529839153E-002
8.3210534E-001	6.211823083059365E-002
8.3310205E-001	7.470654785477904E-002
8.3410311E-001	8.617760292771837E-002
8.3510268E-001	9.558780762987884E-002
8.3611327E-001	1.051652476566638E-001
8.3711082E-001	1.136442175225563E-001
8.3809012E-001	1.209914890609477E-001
8.3909106E-001	1.279453168907723E-001
8.4011763E-001	1.353329387752134E-001
8.4109533E-001	1.405013093543759E-001
8.4208238E-001	1.469273889282103E-001
8.4307647E-001	1.519958342089216E-001
8.4409833E-001	1.568248151516958E-001
8.4509975E-001	1.616438012570148E-001
8.4613013E-001	1.657852204257828E-001
8.4707713E-001	1.703983974099784E-001
8.4808713E-001	1.742464036215101E-001
8.4907568E-001	1.781795451210608E-001
8.5011607E-001	1.816980179735563E-001
8.5107958E-001	1.851843951994354E-001
8.5207009E-001	1.885483402842550E-001
8.5311455E-001	1.923027038574227E-001
8.5408098E-001	1.941567344409936E-001
8.5506797E-001	1.967348482511526E-001
8.5608041E-001	1.999586609890689E-001
8.5708576E-001	2.024686733364232E-001
8.5808408E-001	2.049261574478205E-001
8.5907835E-001	2.066715404054982E-001
8.6011249E-001	2.090005272766580E-001
8.6107832E-001	2.109713663554027E-001
8.6206800E-001	2.139564583259124E-001
8.6308199E-001	2.154223571997140E-001
8.6409843E-001	2.183006624691188E-001
8.6508822E-001	2.194308129579028E-001
8.6608160E-001	2.212335643513743E-001
8.6708862E-001	2.227722256599621E-001
8.6809218E-001	2.246422882502275E-001
8.6906636E-001	2.262352541502980E-001
8.7009424E-001	2.277363377312824E-001
8.7106091E-001	2.293772217688266E-001
8.7206531E-001	2.304668789212081E-001
8.7309122E-001	2.323693063161851E-001
8.7406808E-001	2.334871011941388E-001
8.7506580E-001	2.354051309327290E-001
8.7609380E-001	2.366502907825634E-001
8.7710840E-001	2.378841513224572E-001
8.7809408E-001	2.384886212336523E-001
8.7907827E-001	2.401787003683347E-001
8.8007498E-001	2.413232300637516E-001
8.8108712E-001	2.427517193136751E-001
8.8206142E-001	2.439118003239860E-001
8.8304532E-001	2.450017115851466E-001
8.8408494E-001	2.454076362515072E-001
8.8507462E-001	2.470407127402727E-001
8.8607448E-001	2.478276908190722E-001
8.8706934E-001	2.490225929456451E-001
8.8806635E-001	2.503321157095753E-001
8.8905752E-001	2.508511959523396E-001
8.9004731E-001	2.520863731753906E-001
8.9105457E-001	2.525021155209595E-001
8.9202917E-001	2.531662309387084E-001
8.9306706E-001	2.543013578332554E-001
8.9408094E-001	2.564618407603882E-001
8.9506513E-001	2.567989733328826E-001
8.9604354E-001	2.572583258152024E-001
8.9706582E-001	2.578381026008483E-001
8.9805233E-001	2.586817026862658E-001
8.9907420E-001	2.594736753186835E-001
9.0006739E-001	2.602454838084274E-001
9.0104920E-001	2.607712157898496E-001
9.0203840E-001	2.614967487752444E-001
9.0305984E-001	2.624495089209331E-001
9.0406215E-001	2.632629946909040E-001
9.0506279E-001	2.637523363810037E-001
9.0605330E-001	2.641719519160697E-001
9.0705323E-001	2.657530360027338E-001
9.0804613E-001	2.656056010940435E-001
9.0905249E-001	2.662243517633125E-001
9.0981817E-001	2.672013765550227E-001
9.1022420E-001	2.623253422124043E-001
9.0952343E-001	9.683116808365555E-002
9.0851575E-001	-1.104374252059250E-003
9.0752161E-001	-4.250583925103357E-002
9.0652901E-001	-6.782343706840432E-002
9.0551478E-001	-8.703621793797023E-002
9.0450782E-001	-1.017299190086001E-001
9.0352899E-001	-1.134734592892024E-001
9.0253055E-001	-1.237918689536546E-001
9.0152097E-001	-1.329050198352583E-001
9.0052050E-001	-1.400801692571906E-001
8.9951110E-001	-1.474692826029942E-001
8.9851457E-001	-1.531280593739610E-001
8.9754063E-001	-1.591326732110840E-001
8.9652658E-001	-1.646200803677651E-001
8.9552170E-001	-1.697603368148619E-001
8.9453298E-001	-1.740168600808818E-001
8.9354110E-001	-1.796307287297525E-001
8.9251810E-001	-1.830516026691638E-001
8.9152676E-001	-1.860748642357060E-001
8.9051676E-001	-1.898301533138789E-001
8.8955981E-001	-1.930684429438154E-001
8.8852614E-001	-1.964027493441880E-001
8.8752073E-001	-1.998572743549523E-001
8.8653880E-001	-2.023825378467627E-001
8.8556784E-001	-2.054976541160914E-001
8.8452154E-001	-2.078411718183706E-001
8.8353431E-001	-2.109298591450270E-001
8.8252747E-001	-2.129677476025074E-001
8.8152289E-001	-2.156413845821388E-001
8.8055402E-001	-2.175352642597215E-001
8.7956160E-001	-2.206925770474801E-001
8.7855279E-001	-2.227969089419477E-001
8.7753588E-001	-2.241970948590377E-001
8.7657559E-001	-2.267123116956409E-001
8.7551761E-001	-2.287095912421728E-001
8.7453288E-001	-2.313725660270490E-001
8.7357289E-001	-2.330274174843598E-001
8.7254554E-001	-2.346427170947800E-001
8.7154979E-001	-2.365804425466602E-001
8.7054580E-001	-2.379027216876333E-001
8.6952603E-001	-2.401040611762761E-001
8.6854893E-001	-2.421846650282138E-001
8.6754841E-001	-2.430375008455781E-001
8.6655056E-001	-2.449814478297609E-001
8.6555696E-001	-2.467216315627514E-001
8.6455590E-001	-2.476617359401037E-001
8.6356038E-001	-2.496540293149225E-001
8.6252636E-001	-2.515379010906660E-001
8.6155313E-001	-2.523285836084854E-001
8.6054486E-001	-2.548355264589190E-001
8.5955864E-001	-2.558821423962285E-001
8.5857815E-001	-2.572152067441484E-001
8.5754806E-001	-2.583711980842049E-001
8.5655820E-001	-2.596196572865455E-001
8.5554582E-001	-2.613736404261234E-001
8.5454881E-001	-2.622402951173068E-001
8.5355753E-001	-2.636672916511689E-001
8.5256249E-001	-2.660732668343133E-001
8.5156357E-001	-2.670797112966991E-001
8.5055643E-001	-2.680444970675224E-001
8.4956652E-001	-2.693535494359409E-001
8.4855723E-001	-2.709412203791226E-001
8.4756142E-001	-2.721174456334365E-001
8.4656835E-001	-2.723320005461565E-001
8.4558815E-001	-2.741000663954765E-001
8.4459132E-001	-2.756035843501889E-001
8.4355313E-001	-2.767147940790471E-001
8.4256226E-001	-2.780070973094553E-001
8.4155542E-001	-2.785585739442862E-001
8.4056646E-001	-2.800482446069092E-001
8.3956218E-001	-2.812085078718751E-001
8.3855754E-001	-2.817643780468240E-001
8.3755469E-001	-2.835712360683815E-001
8.3655787E-001	-2.844754481532923E-001
8.3554983E-001	-2.858197068174662E-001
8.3456665E-001	-2.867272585733893E-001
8.3357120E-001	-2.876670469995588E-001
8.3259398E-001	-2.890362514493359E-001
8.3157319E-001	-2.900155566684477E-001
8.3055598E-001	-2.909182036140305E-001
8.2958883E-001	-2.921575356740496E-001
8.2856905E-001	-2.930049961691510E-001
8.2756841E-001	-2.945912778377531E-001
8.2655972E-001	-2.949856568593519E-001
8.2557589E-001	-2.959083077859970E-001
8.2456517E-001	-2.974898435123672E-001
8.2354772E-001	-2.988763468909175E-001
8.2256120E-001	-2.994195183014701E-001
8.2157850E-001	-3.005058829310454E-001
8.2056892E-001	-3.015160448590493E-001
8.1956553E-001	-3.022405277523714E-001
8.1859314E-001	-3.034788067970002E-001
8.1757331E-001	-3.045576798419152E-001
8.1659836E-001	-3.064081282872291E-001
8.1555277E-001	-3.073800992375846E-001
8.1455958E-001	-3.078062937646688E-001
8.1356567E-001	-3.089945542160408E-001
8.1256479E-001	-3.099651156355510E-001
8.1157887E-001	-3.098849863486572E-001
8.1063366E-001	-3.128894293428550E-001
8.1011128E-001	-3.083057871886661E-001
8.1069613E-001	-1.344610489499376E-001
8.1170875E-001	-2.715837166073876E-002
8.1269455E-001	1.912816484319702E-002
8.1368130E-001	4.815578223982231E-002
8.1470299E-001	7.000558097044843E-002
8.1569386E-001	8.570879988191282E-002
8.1669211E-001	9.984809228788288E-002
8.1767690E-001	1.110202408874308E-001
8.1871939E-001	1.204972153451913E-001
8.1967384E-001	1.289297382528387E-001
8.2071418E-001	1.368233589326140E-001
8.2172346E-001	1.435116170517481E-001
8.2266724E-001	1.492508482964090E-001
8.2368803E-001	1.558540962351902E-001
8.2472730E-001	1.613582757094663E-001
8.2570910E-001	1.656841675543963E-001
8.2668811E-001	1.702187310438603E-001
8.2770061E-001	1.741483714948928E-001
8.2871699E-001	1.784277749247858E-001
8.2969064E-001	1.819717775668126E-001
8.3070362E-001	1.861848811644862E-001
8.3168620E-001	1.897603081306447E-001
8.3268625E-001	1.921272960284526E-001
8.3369035E-001	1.958094472582967E-001
8.3471471E-001	1.980120148639086E-001
8.3569062E-001	2.008627117223423E-001
8.3667356E-001	2.035882265513971E-001
8.3771539E-001	2.070705049619495E-001
8.3868909E-001	2.085820400388907E-001
8.3969313E-001	2.113675197405327E-001
8.4070116E-001	2.128862698381360E-001
8.4169441E-001	2.154405541304094E-001
8.4268874E-001	2.173987201337404E-001
8.4370041E-001	2.189397749542774E-001
8.4468549E-001	2.215319527701176E-001
8.4567046E-001	2.224813359272160E-001
8.4670645E-001	2.249768052457108E-001
8.4765887E-001	2.264564113381011E-001
8.4866756E-001	2.281805167440334E-001
8.4966606E-001	2.304482518488342E-001
8.5065699E-001	2.309338266624965E-001
8.5167563E-001	2.325237447706372E-001
8.5266483E-001	2.352318143084027E-001
8.5366446E-001	2.357678952911471E-001
8.5467702E-001	2.373370708147480E-001
8.5564470E-001	2.388991383163055E-001
8.5667044E-001	2.394790242995244E-001
8.5767502E-001	2.410638068104163E-001
8.5866410E-001	2.423724453741061E-001
8.5967237E-001	2.430872904757662E-001
8.6064488E-001	2.448093792061412E-001
8.6168087E-001	2.455836270625387E-001
8.6266690E-001	2.470205972333339E-001
8.6367267E-001	2.479463575097434E-001
8.6466986E-001	2.486154644284397E-001
8.6566925E-001	2.502897301326623E-001
8.6665463E-001	2.503896579405098E-001
8.6764175E-001	2.520216138412552E-001
8.6865318E-001	2.531716305917753E-001
8.6965865E-001	2.530730163626789E-001
8.7065125E-001	2.546441030378150E-001
8.7168783E-001	2.555871197125974E-001
8.7266552E-001	2.561144719365993E-001
8.7366593E-001	2.571362880472516E-001
8.7469238E-001	2.578952408706154E-001
8.7567365E-001	2.582839167055995E-001
8.7667155E-001	2.593489494433419E-001
8.7768614E-001	2.600139495657983E-001
8.7864798E-001	2.607124154714659E-001
8.7968218E-001	2.617715114675878E-001
8.8066858E-001	2.623788363352006E-001
8.8166010E-001	2.629031534048021E-001
8.8264418E-001	2.635210764128719E-001
8.8366616E-001	2.652629034386751E-001
8.8466722E-001	2.651385160990900E-001
8.8569117E-001	2.659519117894691E-001
8.8665301E-001	2.665085514438241E-001
8.8764769E-001	2.674924399341567E-001
8.8866955E-001	2.680131969973445E-001
8.8964969E-001	2.682385919615617E-001
8.9066786E-001	2.688209797100480E-001
8.9166254E-001	2.698949348802380E-001
8.9264172E-001	2.698973625794885E-001
8.9362985E-001	2.718709357560711E-001
8.9465266E-001	2.719639555499380E-001
8.9562613E-001	2.718690597297015E-001
8.9664924E-001	2.726350744617074E-001
8.9767140E-001	2.726779498108156E-001
8.9863461E-001	2.732252547413947E-001
8.9965296E-001	2.743394488417028E-001
9.0064430E-001	2.748499685484500E-001
9.0163571E-001	2.750011750548667E-001
9.0264207E-001	2.755281349851024E-001
9.0365320E-001	2.760833888573373E-001
9.0463829E-001	2.765492228273718E-001
9.0564239E-001	2.769220270371688E-001
9.0662712E-001	2.772639732445703E-001
9.0764982E-001	2.779153835338848E-001
9.0865141E-001	2.781645691332728E-001
9.0957505E-001	2.788705622951975E-001
9.1008663E-001	2.735671103000641E-001
9.0952468E-001	1.083928279307051E-001
9.0853715E-001	1.087635208487989E-002
9.0753061E-001	-3.089296488259499E-002
9.0651906E-001	-5.737420840887320E-002
9.0550447E-001	-7.600408264746239E-002
9.0450889E-001	-9.130595866978797E-002
9.0352321E-001	-1.030496495659461E-001
9.0251583E-001	-1.138609513743880E-001
9.0150380E-001	-1.220215869963996E-001
9.0051371E-001	-1.304531182395294E-001
8.9949608E-001	-1.377949837543486E-001
8.9849925E-001	-1.442976340315201E-001
8.9749557E-001	-1.497145575316000E-001
8.9650476E-001	-1.550025752771433E-001
8.9550805E-001	-1.606172045511707E-001
8.9452612E-001	-1.652956591634490E-001
8.9351428E-001	-1.705659039097065E-001
8.9249563E-001	-1.738952565550181E-001
8.9149469E-001	-1.777471499388210E-001
8.9052123E-001	-1.809539691053534E-001
8.8950360E-001	-1.842802187634833E-001
8.8851249E-001	-1.879707544964420E-001
8.8749486E-001	-1.916983933964116E-001
8.8650548E-001	-1.948245570787948E-001
8.8554114E-001	-1.974914128271239E-001
8.8453937E-001	-2.002688648774181E-001
8.8353705E-001	-2.032329340387760E-001
8.8253957E-001	-2.057640754566008E-001
8.8153207E-001	-2.085726871672595E-001
8.8053507E-001	-2.110672172598749E-001
8.7953681E-001	-2.130056327829756E-001
8.7852913E-001	-2.156061977148052E-001
8.7753940E-001	-2.172140113285028E-001
8.7650770E-001	-2.201834397468088E-001
8.7552714E-001	-2.215451495980640E-001
8.7454426E-001	-2.239336926205509E-001
8.7351632E-001	-2.264870746940781E-001
8.7252426E-001	-2.275141107642815E-001
8.7153250E-001	-2.298963762586945E-001
8.7052768E-001	-2.320280982336641E-001
8.6953771E-001	-2.337585629559009E-001
8.6853260E-001	-2.351345537592557E-001
8.6751008E-001	-2.367011900965324E-001
8.6654133E-001	-2.383505609791929E-001
8.6555803E-001	-2.405029696334774E-001
8.6454380E-001	-2.421774540691528E-001
8.6353195E-001	-2.433150914213096E-001
8.6252803E-001	-2.454589039552955E-001
8.6153191E-001	-2.473173399921498E-001
8.6052209E-001	-2.485547550281293E-001
8.5955542E-001	-2.490565120242532E-001
8.5853314E-001	-2.514274955158018E-001
8.5755652E-001	-2.530762372124524E-001
8.5654521E-001	-2.538188055105914E-001
8.5554069E-001	-2.557923447651156E-001
8.5455602E-001	-2.570855854234342E-001
8.5352415E-001	-2.578069792749971E-001
8.5253543E-001	-2.603676566446005E-001
8.5155708E-001	-2.616950673465102E-001
8.5054302E-001	-2.628593835721000E-001
8.4951967E-001	-2.644099520985024E-001
8.4854573E-001	-2.654850156719066E-001
8.4754616E-001	-2.663976667034964E-001
8.4655631E-001	-2.681864109925094E-001
8.4554321E-001	-2.685511768795545E-001
8.4453547E-001	-2.702056512288324E-001
8.4355265E-001	-2.717295020766968E-001
8.4254652E-001	-2.721916803210558E-001
8.4157693E-001	-2.740585421367232E-001
8.4054810E-001	-2.747929712964425E-001
8.3952647E-001	-2.764122151614470E-001
8.3856386E-001	-2.773201356176278E-001
8.3754694E-001	-2.786264044439628E-001
8.3657765E-001	-2.796039053290666E-001
8.3555323E-001	-2.813828362462414E-001
8.3453238E-001	-2.826048788200652E-001
8.3355957E-001	-2.832086279781310E-001
8.3256543E-001	-2.843549247417176E-001
8.3156759E-001	-2.854426331145481E-001
8.3056945E-001	-2.863059688825160E-001
8.2955670E-001	-2.878687376829058E-001
8.2856315E-001	-2.886044947533961E-001
8.2755631E-001	-2.894931115054833E-001
8.2657194E-001	-2.907522382059446E-001
8.2556623E-001	-2.919680511889355E-001
8.2455653E-001	-2.930840261332269E-001
8.2356751E-001	-2.944623505851873E-001
8.2255900E-001	-2.950667118032755E-001
8.2155150E-001	-2.966880159090364E-001
8.2054514E-001	-2.973673625900922E-001
8.1954390E-001	-2.984606859584646E-001
8.1854594E-001	-2.993374571411147E-001
8.1753731E-001	-3.002492757255413E-001
8.1653392E-001	-3.022129055526515E-001
8.1555170E-001	-3.026936461683363E-001
8.1457126E-001	-3.036033181577091E-001
8.1355143E-001	-3.039571586478917E-001
8.1256586E-001	-3.052244980095145E-001
8.1156373E-001	-3.064742912797027E-001
8.1059545E-001	-3.090033229188219E-001
8.1005013E-001	-3.041482014315471E-001
8.1066132E-001	-1.300733480707144E-001
8.1168997E-001	-2.268764543940599E-002
8.1269598E-001	2.268225513115697E-002
8.1369531E-001	5.220122866901689E-002
8.1465679E-001	7.345830115567309E-002
8.1568706E-001	8.971661831795563E-002
8.1671125E-001	1.038372350222848E-001
8.1766820E-001	1.148603474721315E-001
8.1868291E-001	1.241410473594442E-001
8.1969500E-001	1.326289306679329E-001
8.2068992E-001	1.407650980658626E-001
8.2168698E-001	1.468929994152859E-001
8.2266015E-001	1.529039770830425E-001
8.2366771E-001	1.591900451005338E-001
8.2468021E-001	1.642977734380927E-001
8.2569039E-001	1.691694130551904E-001
8.2670063E-001	1.737628572930899E-001
8.2769221E-001	1.778967654099686E-001
8.2867646E-001	1.815564225608899E-001
8.2965118E-001	1.850214010337370E-001
8.3067352E-001	1.890346908864258E-001
8.3167028E-001	1.925198264394161E-001
8.3268028E-001	1.954854905682923E-001
8.3368516E-001	1.986808002822935E-001
8.3466786E-001	2.011476773380620E-001
8.3568245E-001	2.039873872288609E-001
8.3666950E-001	2.069112808805797E-001
8.3767551E-001	2.090669721364979E-001
8.3868062E-001	2.116290675346852E-001
8.3969229E-001	2.140345773012897E-001
8.4066135E-001	2.160151963148067E-001
8.4169853E-001	2.181237122147457E-001
8.4268445E-001	2.205935490524604E-001
8.4368062E-001	2.224120710614246E-001
8.4467828E-001	2.242790542077282E-001
8.4569693E-001	2.260021439287812E-001
8.4669030E-001	2.282094339348593E-001
8.4765190E-001	2.297292006486615E-001
8.4865308E-001	2.312762992870487E-001
8.4967089E-001	2.330237572314222E-001
8.5068238E-001	2.339724995351089E-001
8.5169202E-001	2.358239869224950E-001
8.5268003E-001	2.382769147606777E-001
8.5365945E-001	2.387058481625806E-001
8.5466683E-001	2.399704337327018E-001
8.5564256E-001	2.416184364248899E-001
8.5665685E-001	2.422026640787309E-001
8.5764647E-001	2.438739137594697E-001
8.5868210E-001	2.444829165728555E-001
8.5966724E-001	2.459811501515405E-001
8.6066180E-001	2.470165093998524E-001
8.6167324E-001	2.481250635917407E-001
8.6268348E-001	2.494948496007259E-001
8.6364460E-001	2.505995345612368E-001
8.6468512E-001	2.515388820061668E-001
8.6565459E-001	2.521590776224105E-001
8.6664468E-001	2.537351185197223E-001
8.6767924E-001	2.540328985131852E-001
8.6864674E-001	2.547512250797199E-001
8.6966634E-001	2.565711336727770E-001
8.7066334E-001	2.565152890100659E-001
8.7166440E-001	2.578169819640221E-001
8.7264448E-001	2.587172733619822E-001
8.7365174E-001	2.595623706777890E-001
8.7466383E-001	2.601076535777089E-001
8.7567854E-001	2.609959941150430E-001
8.7664247E-001	2.613953705618366E-001
8.7765086E-001	2.621811265643275E-001
8.7864584E-001	2.633501967777407E-001
8.7964088E-001	2.642454769876283E-001
8.8065326E-001	2.650670674888216E-001
8.8163567E-001	2.653826843791967E-001
8.8262784E-001	2.661517435270877E-001
8.8364142E-001	2.664367902713520E-001
8.8463777E-001	2.671761585709964E-001
8.8564998E-001	2.678434728489574E-001
8.8665807E-001	2.688463632431296E-001
8.8766587E-001	2.697370318023280E-001
8.8864470E-001	2.698586930055180E-001
8.8964826E-001	2.705040002086523E-001
8.9064693E-001	2.712785681295742E-001
8.9163643E-001	2.715987605560164E-001
8.9265186E-001	2.721264346554467E-001
8.9363670E-001	2.739062281970770E-001
8.9467287E-001	2.738709497110303E-001
8.9564890E-001	2.739485401091057E-001
8.9662439E-001	2.746197895871271E-001
8.9766884E-001	2.753909447023446E-001
8.9865583E-001	2.751675537890871E-001
8.9963174E-001	2.759918468590419E-001
9.0064377E-001	2.764677079135764E-001
9.0164018E-001	2.772702682608132E-001
9.0264428E-001	2.781058843765002E-001
9.0364027E-001	2.784700614607170E-001
9.0464234E-001	2.784883902252959E-001
9.0563393E-001	2.791015827873111E-001
9.0662140E-001	2.791988201335900E-001
9.0763688E-001	2.803361636017359E-001
9.0862203E-001	2.806508315261467E-001
9.0960878E-001	2.810298927361155E-001
9.1007143E-001	2.760258529867441E-001
9.0950936E-001	1.106081255840969E-001
9.0852433E-001	1.298391353541067E-002
9.0751743E-001	-2.986014773260759E-002
9.0649539E-001	-5.589260066173884E-002
9.0550101E-001	-7.442375516984612E-002
9.0449500E-001	-8.915190176857224E-002
9.0350354E-001	-1.012193977173104E-001
9.0248656E-001	-1.116573765175413E-001
9.0152687E-001	-1.207895256553051E-001
9.0052360E-001	-1.287191999532906E-001
8.9952981E-001	-1.361083418596534E-001
8.9850163E-001	-1.419001344539630E-001
8.9752573E-001	-1.485467310218755E-001
8.9652032E-001	-1.535101448599665E-001
8.9553279E-001	-1.591728498978122E-001
8.9453882E-001	-1.634793607776781E-001
8.9351755E-001	-1.688037261529041E-001
8.9251012E-001	-1.721873937510994E-001
8.9150906E-001	-1.757838911920162E-001
8.9053684E-001	-1.796452815696175E-001
8.8953942E-001	-1.829836706811978E-001
8.8851249E-001	-1.867016599022051E-001
8.8749713E-001	-1.900018993247703E-001
8.8651013E-001	-1.933515974216982E-001
8.8554788E-001	-1.960909960972550E-001
8.8451564E-001	-1.988745084705039E-001
8.8353705E-001	-2.013975824746816E-001
8.8250005E-001	-2.040398112601700E-001
8.8151288E-001	-2.069986338416725E-001
8.8052464E-001	-2.088295666682014E-001
8.7952954E-001	-2.116196664800460E-001
8.7854081E-001	-2.135380085997480E-001
8.7753147E-001	-2.163670083714853E-001
8.7653142E-001	-2.185187847482872E-001
8.7553138E-001	-2.200562223378146E-001
8.7453634E-001	-2.223913754957412E-001
8.7353235E-001	-2.242991553955820E-001
8.7251532E-001	-2.262913918562424E-001
8.7150651E-001	-2.283235300047739E-001
8.7051857E-001	-2.300637749204824E-001
8.6952436E-001	-2.322298243978160E-001
8.6854511E-001	-2.340908015483159E-001
8.6752224E-001	-2.352732908006550E-001
8.6650860E-001	-2.370174018174618E-001
8.6555487E-001	-2.387420862732030E-001
8.6452579E-001	-2.406992352076083E-001
8.6351854E-001	-2.420876527515552E-001
8.6255354E-001	-2.439272525565084E-001
8.6154884E-001	-2.453430943035828E-001
8.6056483E-001	-2.471165609183830E-001
8.5954398E-001	-2.485967341086108E-001
8.5854715E-001	-2.498425920493892E-001
8.5755807E-001	-2.515258910910534E-001
8.5654962E-001	-2.529532673975643E-001
8.5554349E-001	-2.544671487218384E-001
8.5455430E-001	-2.554562771692881E-001
8.5353035E-001	-2.575655938902246E-001
8.5255373E-001	-2.588334746627399E-001
8.5155088E-001	-2.604288580672200E-001
8.5053664E-001	-2.614148324614187E-001
8.4955567E-001	-2.627117361407723E-001
8.4853679E-001	-2.640968091113294E-001
8.4753042E-001	-2.650248645804818E-001
8.4654212E-001	-2.663691596697175E-001
8.4555358E-001	-2.673692415054459E-001
8.4455478E-001	-2.692995659955233E-001
8.4355360E-001	-2.695684489380143E-001
8.4254801E-001	-2.712874082951908E-001
8.4155393E-001	-2.727908967838921E-001
8.4055835E-001	-2.735996814962030E-001
8.3957958E-001	-2.754430986889096E-001
8.3855605E-001	-2.763521296955229E-001
8.3759069E-001	-2.773948706841720E-001
8.3655936E-001	-2.781291410533910E-001
8.3556241E-001	-2.795352569729492E-001
8.3454478E-001	-2.804295775842749E-001
8.3355361E-001	-2.822581248927009E-001
8.3254492E-001	-2.832576659921966E-001
8.3156550E-001	-2.843946113975502E-001
8.3055931E-001	-2.851629172607009E-001
8.2955718E-001	-2.857315004803236E-001
8.2855719E-001	-2.873832160193057E-001
8.2753909E-001	-2.885344007776842E-001
8.2653815E-001	-2.894372867885973E-001
8.2555759E-001	-2.905025679825064E-001
8.2456863E-001	-2.917434810660771E-001
8.2357842E-001	-2.929984939595061E-001
8.2255220E-001	-2.941680180374520E-001
8.2154924E-001	-2.950582021795629E-001
8.2056892E-001	-2.956637401495956E-001
8.1955487E-001	-2.965516525113747E-001
8.1855857E-001	-2.983486907194459E-001
8.1756955E-001	-2.991833208490995E-001
8.1656909E-001	-3.013484671504951E-001
8.1553453E-001	-3.014184789369887E-001
8.1455106E-001	-3.015933162015356E-001
8.1356615E-001	-3.036579221435287E-001
8.1256413E-001	-3.043237508843752E-001
8.1154239E-001	-3.054114391561598E-001
8.1059724E-001	-3.073883470885148E-001
8.1012654E-001	-3.035951852798462E-001
8.1067604E-001	-1.292998130718410E-001
8.1168628E-001	-2.234059584300965E-002
8.1272477E-001	2.398739355784432E-002
8.1366962E-001	5.320294096600275E-002
8.1468225E-001	7.438316782807108E-002
8.1567049E-001	9.050588287128541E-002
8.1666756E-001	1.052431563989054E-001
8.1771046E-001	1.153791978334391E-001
8.1870008E-001	1.250983948767597E-001
8.1968868E-001	1.336331454804176E-001
8.2068825E-001	1.415389655028585E-001
8.2165533E-001	1.478830394981847E-001
8.2270777E-001	1.543402111856274E-001
8.2366920E-001	1.599342972040176E-001
8.2466596E-001	1.652898232633668E-001
8.2568842E-001	1.703067369267552E-001
8.2667810E-001	1.745314104611881E-001
8.2769871E-001	1.786980205991617E-001
8.2865924E-001	1.831830337695379E-001
8.2969743E-001	1.861234279090742E-001
8.3068645E-001	1.900569993692143E-001
8.3167350E-001	1.933905545285799E-001
8.3269536E-001	1.962619080699772E-001
8.3367205E-001	2.000055800373146E-001
8.3467418E-001	2.024871445416168E-001
8.3566779E-001	2.052392337031457E-001
8.3668733E-001	2.085481714845331E-001
8.3767223E-001	2.103453628822329E-001
8.3870542E-001	2.129146065692322E-001
8.3970535E-001	2.146463087475343E-001
8.4068525E-001	2.171757513036337E-001
8.4168977E-001	2.190916664484477E-001
8.4270078E-001	2.206822935517683E-001
8.4368408E-001	2.232319621446859E-001
8.4467900E-001	2.254656825421586E-001
8.4568518E-001	2.266482157089440E-001
8.4667689E-001	2.287512050243103E-001
8.4764928E-001	2.302151439038829E-001
8.4866399E-001	2.321201713962696E-001
8.4967947E-001	2.338373250483226E-001
8.5065889E-001	2.353803537423829E-001
8.5166770E-001	2.359528553594524E-001
8.5266262E-001	2.390250826366600E-001
8.5367548E-001	2.389274366044756E-001
8.5465026E-001	2.408524230251921E-001
8.5566759E-001	2.426931171471054E-001
8.5664475E-001	2.433438659645621E-001
8.5766059E-001	2.447561478475115E-001
8.5867524E-001	2.457756883619979E-001
8.5968107E-001	2.464684112670114E-001
8.6068302E-001	2.481637493862463E-001
8.6165833E-001	2.494477649581512E-001
8.6266631E-001	2.508821284346698E-001
8.6367202E-001	2.514600073142601E-001
8.6466223E-001	2.519635235269868E-001
8.6567330E-001	2.532299171822777E-001
8.6667949E-001	2.539994191481849E-001
8.6764932E-001	2.550079205797784E-001
8.6866963E-001	2.562168942660925E-001
8.6964202E-001	2.570228313561538E-001
8.7067652E-001	2.578521591818168E-001
8.7165678E-001	2.587241746433495E-001
8.7263095E-001	2.591749634852416E-001
8.7364978E-001	2.602794854384340E-001
8.7465680E-001	2.607395826683669E-001
8.7566561E-001	2.617660836420139E-001
8.7666762E-001	2.624130547046667E-001
8.7766051E-001	2.631146989038422E-001
8.7866330E-001	2.645750347938814E-001
8.7964308E-001	2.651387372623306E-001
8.8063252E-001	2.653088790571525E-001
8.8166374E-001	2.665271762396315E-001
8.8262910E-001	2.667561369534166E-001
8.8367081E-001	2.675746613078664E-001
8.8464850E-001	2.680209954010548E-001
8.8565063E-001	2.690676124507780E-001
8.8664424E-001	2.699421704746818E-001
8.8764954E-001	2.702069987232498E-001
8.8866043E-001	2.704215939674112E-001
8.8964701E-001	2.709708020298018E-001
8.9065731E-001	2.719497454818351E-001
8.9167070E-001	2.719480290025889E-001
8.9264226E-001	2.728021527485316E-001
8.9362669E-001	2.738460229050506E-001
8.9465278E-001	2.751131076883127E-001
8.9564496E-001	2.749654823500247E-001
8.9666557E-001	2.755535449315278E-001
8.9764220E-001	2.760132370102744E-001
8.9863998E-001	2.761063816595004E-001
8.9964974E-001	2.770929050166164E-001
9.0062785E-001	2.774038056636026E-001
9.0162975E-001	2.785122688445795E-001
9.0265149E-001	2.788884449594971E-001
9.0365547E-001	2.791083998874657E-001
9.0465021E-001	2.798756096098163E-001
9.0563256E-001	2.793051297517717E-001
9.0663415E-001	2.803734448065782E-001
9.0766358E-001	2.807182845814777E-001
9.0864754E-001	2.818250888699878E-001
9.0957397E-001	2.819839178700949E-001
9.1010958E-001	2.761126501219615E-001
9.0952134E-001	1.111231548646980E-001
9.0850592E-001	1.381621729241392E-002
9.0751570E-001	-2.858435959691019E-002
9.0649539E-001	-5.472799875941625E-002
9.0549016E-001	-7.392576625958713E-002
9.0449023E-001	-8.882793914785403E-002
9.0351111E-001	-1.003295657768222E-001
9.0250754E-001	-1.110109375957913E-001
9.0152586E-001	-1.197136152057077E-001
9.0051812E-001	-1.285455922415064E-001
8.9950818E-001	-1.348422667296192E-001
8.9850473E-001	-1.416388025714288E-001
8.9751089E-001	-1.475293594024447E-001
8.9651388E-001	-1.530424022348595E-001
8.9551550E-001	-1.579360718994085E-001
8.9452553E-001	-1.630656550276195E-001
8.9351398E-001	-1.681457999710005E-001
8.9252400E-001	-1.718471403000876E-001
8.9150959E-001	-1.747375978674324E-001
8.9053673E-001	-1.797766370000313E-001
8.8951951E-001	-1.825467262080762E-001
8.8851660E-001	-1.858317763544624E-001
8.8752162E-001	-1.897747392067686E-001
8.8649696E-001	-1.921325473683987E-001
8.8552809E-001	-1.953700529670126E-001
8.8452053E-001	-1.981987747389615E-001
8.8352346E-001	-2.008574065726454E-001
8.8252509E-001	-2.034702236738259E-001
8.8153332E-001	-2.062005054128040E-001
8.8053322E-001	-2.085390506027682E-001
8.7952715E-001	-2.111317541501991E-001
8.7854588E-001	-2.126277479757035E-001
8.7754315E-001	-2.154463374366361E-001
8.7654144E-001	-2.176429627256249E-001
8.7553239E-001	-2.198129384390382E-001
8.7453920E-001	-2.220167786064042E-001
8.7351692E-001	-2.236721429637538E-001
8.7253946E-001	-2.252065638183716E-001
8.7154913E-001	-2.279696878847768E-001
8.7058038E-001	-2.291521225253943E-001
8.6956048E-001	-2.307755437731327E-001
8.6855763E-001	-2.335933368368486E-001
8.6753434E-001	-2.343012384630530E-001
8.6655557E-001	-2.365948211324089E-001
8.6556756E-001	-2.387309905865957E-001
8.6456084E-001	-2.399949410464624E-001
8.6353648E-001	-2.413718374187330E-001
8.6253828E-001	-2.435272837109457E-001
8.6153585E-001	-2.449457901529963E-001
8.6054820E-001	-2.464676850423637E-001
8.5954970E-001	-2.479259415477930E-001
8.5854846E-001	-2.498686040699907E-001
8.5753447E-001	-2.504519266852490E-001
8.5653037E-001	-2.526459499107059E-001
8.5555917E-001	-2.537544126777593E-001
8.5458106E-001	-2.545555609071419E-001
8.5354137E-001	-2.564273078718937E-001
8.5255027E-001	-2.586376104601531E-001
8.5157269E-001	-2.597931935451916E-001
8.5052013E-001	-2.607697717483237E-001
8.4955633E-001	-2.621007940162805E-001
8.4857762E-001	-2.636871717145874E-001
8.4755021E-001	-2.643213981710799E-001
8.4655976E-001	-2.656590926926579E-001
8.4557956E-001	-2.674009144150959E-001
8.4455132E-001	-2.685360119729818E-001
8.4355539E-001	-2.694429224615713E-001
8.4255123E-001	-2.705914019606999E-001
8.4155500E-001	-2.723578105991082E-001
8.4057277E-001	-2.725688039532130E-001
8.3956647E-001	-2.740909216356351E-001
8.3856153E-001	-2.757291681029717E-001
8.3757514E-001	-2.764285137980331E-001
8.3657634E-001	-2.780572386044575E-001
8.3556074E-001	-2.793851446670765E-001
8.3457589E-001	-2.802988021737998E-001
8.3355671E-001	-2.812784542588296E-001
8.3257717E-001	-2.824046302121120E-001
8.3157355E-001	-2.839077354098358E-001
8.3055037E-001	-2.845464023347513E-001
8.2958156E-001	-2.857447266578674E-001
8.2856059E-001	-2.866051531552030E-001
8.2754582E-001	-2.872160445484853E-001
8.2655776E-001	-2.891714166228949E-001
8.2555073E-001	-2.894454537890852E-001
8.2456177E-001	-2.912252146181542E-001
8.2354969E-001	-2.925520563342918E-001
8.2253456E-001	-2.934935049722993E-001
8.2155836E-001	-2.936720961653103E-001
8.2056868E-001	-2.951316889892848E-001
8.1957126E-001	-2.967988338010992E-001
8.1855965E-001	-2.973249954585393E-001
8.1754893E-001	-2.985486123296941E-001
8.1655610E-001	-3.006457114436971E-001
8.1555104E-001	-3.005733755675872E-001
8.1454295E-001	-3.021569587290280E-001
8.1354004E-001	-3.025638546484197E-001
8.1255853E-001	-3.039965331554401E-001
8.1157941E-001	-3.049139103903944E-001
8.1062007E-001	-3.065115051576868E-001
8.1009978E-001	-3.014159500598907E-001
8.1067520E-001	-1.290321588509253E-001
8.1167877E-001	-2.199439402599840E-002
8.1265986E-001	2.448448280645404E-002
8.1366730E-001	5.422254207789801E-002
8.1467158E-001	7.522056710958092E-002
8.1566924E-001	9.108401278758294E-002
8.1667262E-001	1.051817510031268E-001
8.1768602E-001	1.163726875739590E-001
8.1867522E-001	1.257046015752071E-001
8.1967187E-001	1.338272833575823E-001
8.2070386E-001	1.422468026996486E-001
8.2168823E-001	1.480626896437680E-001
8.2267505E-001	1.539863139753130E-001
8.2367170E-001	1.612684696059052E-001
8.2468420E-001	1.658663619827074E-001
8.2570314E-001	1.707171481102706E-001
8.2667643E-001	1.747540580367466E-001
8.2766396E-001	1.792065794709042E-001
8.2868075E-001	1.832235272094194E-001
8.2968748E-001	1.871892525555774E-001
8.3068025E-001	1.906505690292559E-001
8.3169830E-001	1.937409036715212E-001
8.3266926E-001	1.973964660816514E-001
8.3365482E-001	2.000299353126653E-001
8.3469301E-001	2.027957735764283E-001
8.3564359E-001	2.052655664608924E-001
8.3669353E-001	2.086649367766873E-001
8.3769459E-001	2.105098983091827E-001
8.3866727E-001	2.128024215473692E-001
8.3963835E-001	2.156493457603381E-001
8.4065557E-001	2.174553454129233E-001
8.4166980E-001	2.197461165746457E-001
8.4264416E-001	2.214090354326703E-001
8.4367299E-001	2.237612723838556E-001
8.4466708E-001	2.259171285097383E-001
8.4567606E-001	2.271960399294688E-001
8.4665293E-001	2.295155737212760E-001
8.4767926E-001	2.308232591151160E-001
8.4867817E-001	2.322316272960361E-001
8.4967303E-001	2.346587507700970E-001
8.5067624E-001	2.354699386956380E-001
8.5165280E-001	2.365951476773867E-001
8.5264802E-001	2.397203712594802E-001
8.5366595E-001	2.405393937111113E-001
8.5465676E-001	2.414112840261727E-001
8.5566300E-001	2.427816419189595E-001
8.5666049E-001	2.437456867580003E-001
8.5767323E-001	2.453292976521588E-001
8.5868233E-001	2.458273940460973E-001
8.5965759E-001	2.475565812653956E-001
8.6065990E-001	2.480947052439064E-001
8.6165005E-001	2.495740852318695E-001
8.6264414E-001	2.504583818113639E-001
8.6365902E-001	2.517946311531380E-001
8.6465865E-001	2.522106118914156E-001
8.6567503E-001	2.540039323632515E-001
8.6664450E-001	2.546347882857329E-001
8.6764145E-001	2.552114257640730E-001
8.6864299E-001	2.563065032267744E-001
8.6966169E-001	2.573887235743726E-001
8.7063771E-001	2.578285553285635E-001
8.7162137E-001	2.588401794588826E-001
8.7262666E-001	2.598471523831707E-001
8.7367052E-001	2.604008098650317E-001
8.7464797E-001	2.616215000549951E-001
8.7565619E-001	2.622651944402605E-001
8.7663239E-001	2.633904617072806E-001
8.7762719E-001	2.639612821189474E-001
8.7863165E-001	2.650184541837204E-001
8.7966239E-001	2.649106054773782E-001
8.8066608E-001	2.656283695768151E-001
8.8162804E-001	2.668100268476545E-001
8.8265693E-001	2.673332106787716E-001
8.8363844E-001	2.678245652156575E-001
8.8464445E-001	2.686859098677024E-001
8.8563734E-001	2.690033998806038E-001
8.8663721E-001	2.707564867256831E-001
8.8763237E-001	2.711129579434379E-001
8.8863748E-001	2.709260896727878E-001
8.8965994E-001	2.714350328832449E-001
8.9064240E-001	2.724669804123958E-001
8.9165342E-001	2.729567619713238E-001
8.9261585E-001	2.730442788710601E-001
8.9361560E-001	2.750338636084078E-001
8.9463717E-001	2.751222775938613E-001
8.9564556E-001	2.754754729620710E-001
8.9664012E-001	2.762034631644701E-001
8.9764565E-001	2.761243079375069E-001
8.9863235E-001	2.764679606900460E-001
8.9965481E-001	2.776221056830972E-001
9.0060663E-001	2.776481745919837E-001
9.0162557E-001	2.784407855942845E-001
9.0261805E-001	2.794441257913918E-001
9.0363002E-001	2.787006743924900E-001
9.0462685E-001	2.797426886908300E-001
9.0562874E-001	2.797965431430700E-001
9.0662330E-001	2.814444914563669E-001
9.0764773E-001	2.816243093046884E-001
9.0862477E-001	2.817076685476243E-001
9.0958029E-001	2.817065077833845E-001
9.1017073E-001	2.835966249306994E-001