Ewe/V	<I>/mA	
1.3724470E+000	0.000000000000000E+000
1.3681151E+000	0.000000000000000E+000
1.2305615E+000	-1.763385964602961E+000
1.2323903E+000	-4.045034665718785E-001
1.2357152E+000	-1.626985093997566E-001
1.2390628E+000	-1.091944658733855E-001
1.2423736E+000	-7.867377447013180E-002
1.2457347E+000	-5.843853468752380E-002
1.2490439E+000	-4.370048616529673E-002
1.2523919E+000	-3.241421059925365E-002
1.2557272E+000	-2.348595705322368E-002
1.2590734E+000	-1.635250020051976E-002
1.2623783E+000	-1.057803691779274E-002
1.2657173E+000	-5.672124491042652E-003
1.2690479E+000	-1.664746950481223E-003
1.2723823E+000	1.904516780960271E-003
1.2757182E+000	4.859455316739474E-003
1.2790340E+000	7.484342285233481E-003
1.2823832E+000	9.843735076782874E-003
1.2857058E+000	1.186915704189029E-002
1.2890307E+000	1.362090314433351E-002
1.2923870E+000	1.529692421554435E-002
1.2957238E+000	1.669991921074063E-002
1.2990265E+000	1.803348567236768E-002
1.3023849E+000	1.921197095406502E-002
1.3057160E+000	2.029891256151545E-002
1.3090484E+000	2.142225082029026E-002
1.3123658E+000	2.228624796623790E-002
1.3157340E+000	2.318506840181317E-002
1.3190491E+000	2.409378643475227E-002
1.3223766E+000	2.498191192048690E-002
1.3257149E+000	2.574231966536999E-002
1.3290449E+000	2.658069572453348E-002
1.3323901E+000	2.745881818578155E-002
1.3357238E+000	2.816727329730728E-002
1.3390509E+000	2.883191087157072E-002
1.3423816E+000	2.969043186275078E-002
1.3457459E+000	3.026841530977997E-002
1.3490698E+000	3.095292424410151E-002
1.3523906E+000	3.161720922241090E-002
1.3557203E+000	3.249746406736342E-002
1.3590697E+000	3.324464675749042E-002
1.3624282E+000	3.397390851776627E-002
1.3657589E+000	3.456911903518739E-002
1.3691013E+000	3.531920309177750E-002
1.3724351E+000	3.609594398426058E-002
1.3757634E+000	3.693798177133301E-002
1.3791083E+000	3.788737150413296E-002
1.3824445E+000	3.894867628023857E-002
1.3857759E+000	4.007460834776339E-002
1.3891248E+000	4.124211858181948E-002
1.3924384E+000	4.276077582259252E-002
1.3957703E+000	4.465873764676054E-002
1.3991009E+000	4.710680699583875E-002
1.4024162E+000	4.991604505940095E-002
1.4057372E+000	5.329619970489474E-002
1.4090577E+000	5.746311956092487E-002
1.4124068E+000	6.246003423258961E-002
1.4157393E+000	6.888055694522632E-002
1.4190730E+000	7.658234363160565E-002
1.4224263E+000	8.577220795342883E-002
1.4257487E+000	9.698772690828239E-002
1.4290953E+000	1.103102616927356E-001
1.4324365E+000	1.258852814986131E-001
1.4357606E+000	1.441682817323287E-001
1.4390793E+000	1.649121788564869E-001
1.4424101E+000	1.886848676570116E-001
1.4457321E+000	2.159953063906190E-001
1.4490492E+000	2.464317747730966E-001
1.4523801E+000	2.804703597336280E-001
1.4557028E+000	3.181282480825205E-001
1.4590380E+000	3.592363484051093E-001
1.4623942E+000	4.048449164058057E-001
1.4657093E+000	4.531434617741983E-001
1.4690480E+000	5.054286101452168E-001
1.4723808E+000	5.615011455491626E-001
1.4756935E+000	6.221741489834831E-001
1.4790429E+000	6.863188807875522E-001
1.4823697E+000	7.545030558645109E-001
1.4856795E+000	8.243262888006422E-001
1.4890257E+000	8.987532353649099E-001
1.4923323E+000	9.785776708706551E-001
1.4957300E+000	1.064830414889226E+000
1.4990762E+000	1.151512729464717E+000
1.5024096E+000	1.242235928252615E+000
1.5057569E+000	1.337306942778064E+000
1.5090829E+000	1.436579328240011E+000
1.5124208E+000	1.541813483067381E+000
1.5157524E+000	1.647105944621692E+000
1.5190854E+000	1.752290400632909E+000
1.5224081E+000	1.867821496699769E+000
1.5257357E+000	1.981465015282833E+000
1.5290704E+000	2.100043462452511E+000
1.5323863E+000	2.230235322521896E+000
1.5357169E+000	2.358373812031992E+000
1.5390563E+000	2.476485200670194E+000
1.5423846E+000	2.603483951412031E+000
1.5457191E+000	2.727414863397486E+000
1.5490627E+000	2.860385182008108E+000
1.5523964E+000	2.992007441578863E+000
1.5557264E+000	3.129036965273166E+000
1.5590558E+000	3.272561711087484E+000
1.5623748E+000	3.419924688480311E+000
1.5657277E+000	3.561051691714752E+000
1.5690571E+000	3.724544882291326E+000
1.5723829E+000	3.868878170572401E+000
1.5757072E+000	4.034846636745073E+000
1.5790678E+000	4.179426726096430E+000
1.5823804E+000	4.335077276793079E+000
1.5857199E+000	4.494387974273664E+000
1.5890611E+000	4.654698479779796E+000
1.5923730E+000	4.822125819856730E+000
1.5956903E+000	4.993613740094149E+000
1.5990363E+000	5.157392453423125E+000
1.6023494E+000	5.315501856470391E+000
1.6056907E+000	5.486822917784451E+000
1.6090423E+000	5.672622496183024E+000
1.6123683E+000	5.849944705162933E+000
1.6156944E+000	6.023783342555305E+000
1.6190366E+000	6.206673617828821E+000
1.6223712E+000	6.384288139784886E+000
1.6256919E+000	6.571063573867630E+000
1.6290183E+000	6.756558985535982E+000
1.6323569E+000	6.949343597820615E+000
1.6356642E+000	7.148867527104379E+000
1.6389968E+000	7.333070761906592E+000
1.6423450E+000	7.522685451749631E+000
1.6456776E+000	7.718491446282094E+000
1.6490023E+000	7.921878708979371E+000
1.6523371E+000	8.123849600004462E+000
1.6556836E+000	8.314752493252627E+000
1.6589975E+000	8.512136090218405E+000
1.6623385E+000	8.741804992497642E+000
1.6656920E+000	8.981943378671815E+000
1.6690063E+000	9.180668152926131E+000
1.6723382E+000	9.387920641596565E+000
1.6756580E+000	9.599692630110184E+000
1.6789868E+000	9.809588389524379E+000
1.6823354E+000	1.003354373702052E+001
1.6856874E+000	1.023536096507267E+001
1.6889821E+000	1.045324500626410E+001
1.6923239E+000	1.067608185298850E+001
1.6956908E+000	1.090621357182063E+001
1.6990577E+000	1.113798321352484E+001
1.7023872E+000	1.135654665432179E+001
1.7057581E+000	1.155797124347939E+001
1.7090901E+000	1.180432900459655E+001
1.7124130E+000	1.202033080880628E+001
1.7157530E+000	1.228791492540677E+001
1.7190801E+000	1.255683168553426E+001
1.7224257E+000	1.278107965849395E+001
1.7257898E+000	1.300339719523129E+001
1.7291127E+000	1.323548351772041E+001
1.7324549E+000	1.346627880859768E+001
1.7357816E+000	1.369259595148026E+001
1.7390993E+000	1.390322517228213E+001
1.7424375E+000	1.412908472421799E+001
1.7457515E+000	1.438201806153563E+001
1.7490828E+000	1.461397607919264E+001
1.7523903E+000	1.484691605411641E+001
1.7557435E+000	1.509362467582537E+001
1.7590684E+000	1.536353032332546E+001
1.7623996E+000	1.559184678169572E+001
1.7657422E+000	1.578894179246771E+001
1.7690697E+000	1.602984467061540E+001
1.7724144E+000	1.627547908862022E+001
1.7757456E+000	1.652950540364458E+001
1.7790693E+000	1.674815383575769E+001
1.7824066E+000	1.698702890100952E+001
1.7857416E+000	1.716787766312049E+001
1.7890757E+000	1.741190741206961E+001
1.7924070E+000	1.771880943150788E+001
1.7957439E+000	1.792228333122695E+001
1.7990592E+000	1.816648869487550E+001
1.8024095E+000	1.841421325314354E+001
1.8057323E+000	1.863823093290759E+001
1.8090824E+000	1.888515619821223E+001
1.8124229E+000	1.911376987977187E+001
1.8157557E+000	1.929527427243954E+001
1.8190744E+000	1.953876274047147E+001
1.8224037E+000	1.984557925476611E+001
1.8257350E+000	2.006777577791513E+001
1.8290800E+000	2.033636272247005E+001
1.8324021E+000	2.053388339725450E+001
1.8357189E+000	2.075469843489293E+001
1.8390778E+000	2.099323066852415E+001
1.8424182E+000	2.125270500068473E+001
1.8457361E+000	2.149545273477329E+001
1.8489054E+000	2.174433056203537E+001
1.8505915E+000	2.174450683593750E+001