Ewe/V	<I>/mA	
1.3330286E+000	0.000000000000000E+000
1.3321834E+000	0.000000000000000E+000
1.2305335E+000	-1.188092597893307E+000
1.2325702E+000	-2.469895141685203E-001
1.2360768E+000	-7.997902355531694E-002
1.2394112E+000	-4.772268368726384E-002
1.2427585E+000	-3.070620686132430E-002
1.2460927E+000	-1.862213750646367E-002
1.2494415E+000	-1.122211281786953E-002
1.2527933E+000	-5.749504250422255E-003
1.2561253E+000	-1.434626864491424E-003
1.2594466E+000	2.076929040892510E-003
1.2627953E+000	5.052350962345301E-003
1.2661551E+000	7.548850745832836E-003
1.2694781E+000	9.487746613310616E-003
1.2728193E+000	1.136317961697728E-002
1.2761836E+000	1.282539027367009E-002
1.2795165E+000	1.422582734385269E-002
1.2828534E+000	1.549888503890993E-002
1.2861744E+000	1.661115530145464E-002
1.2895114E+000	1.764588983153837E-002
1.2928761E+000	1.845258086468543E-002
1.2962134E+000	1.925015388347279E-002
1.2995679E+000	2.007576997542859E-002
1.3029131E+000	2.076761637973246E-002
1.3062338E+000	2.139140432124509E-002
1.3095928E+000	2.198118881173716E-002
1.3129255E+000	2.246204933862947E-002
1.3162713E+000	2.296730538467143E-002
1.3195981E+000	2.356984682032842E-002
1.3229302E+000	2.413786877032603E-002
1.3262712E+000	2.455732673189487E-002
1.3296069E+000	2.509128310704634E-002
1.3329483E+000	2.548672007008879E-002
1.3362871E+000	2.602364825434259E-002
1.3396367E+000	2.655463717377937E-002
1.3429779E+000	2.697186983834576E-002
1.3463240E+000	2.758252494141145E-002
1.3496474E+000	2.789192273427962E-002
1.3529916E+000	2.838694298014471E-002
1.3563377E+000	2.893246052143172E-002
1.3596878E+000	2.953675339501738E-002
1.3630244E+000	3.000664091623251E-002
1.3663921E+000	3.198935961112204E-002
1.3697240E+000	3.160880891919458E-002
1.3730882E+000	3.201686347513066E-002
1.3764132E+000	3.266051693703492E-002
1.3797412E+000	3.360091466750692E-002
1.3830882E+000	3.450454380315743E-002
1.3864461E+000	3.543748306448671E-002
1.3897815E+000	3.670791043786248E-002
1.3931270E+000	3.823457698828009E-002
1.3964574E+000	4.013233264798509E-002
1.3997877E+000	4.223968590330995E-002
1.4031364E+000	4.497025123480106E-002
1.4064599E+000	4.819704566392904E-002
1.4098049E+000	5.237905833849754E-002
1.4131241E+000	5.763428361092204E-002
1.4164753E+000	6.362722297106949E-002
1.4198363E+000	7.097410328889786E-002
1.4231580E+000	7.989817894710263E-002
1.4264938E+000	9.089159028451888E-002
1.4298489E+000	1.037569584409330E-001
1.4331819E+000	1.186271949079858E-001
1.4365327E+000	1.363375294276366E-001
1.4398555E+000	1.597231940341561E-001
1.4431869E+000	1.820688384729718E-001
1.4465288E+000	2.085124058106809E-001
1.4498553E+000	2.380643454650109E-001
1.4531970E+000	2.709636654355125E-001
1.4565314E+000	3.072966713426215E-001
1.4598602E+000	3.522745016356525E-001
1.4632080E+000	3.959863570790363E-001
1.4665505E+000	4.438375091093079E-001
1.4699005E+000	4.947445987015713E-001
1.4732341E+000	5.583863247244272E-001
1.4765577E+000	6.170638730385503E-001
1.4798869E+000	6.797242527096259E-001
1.4832361E+000	7.544463913442154E-001
1.4865561E+000	8.253186274088717E-001
1.4898871E+000	9.001425477462428E-001
1.4932282E+000	9.860161113043979E-001
1.4966218E+000	1.070204218986706E+000
1.4999666E+000	1.166350877868396E+000
1.5033263E+000	1.253216997280088E+000
1.5066603E+000	1.355286382747265E+000
1.5099961E+000	1.450787556989309E+000
1.5133648E+000	1.559285158322086E+000
1.5167009E+000	1.664755527405745E+000
1.5200230E+000	1.783060107775405E+000
1.5233709E+000	1.893935681056744E+000
1.5267162E+000	2.016878175854185E+000
1.5300469E+000	2.142043167839812E+000
1.5333682E+000	2.268130307495775E+000
1.5367200E+000	2.403414499813246E+000
1.5400525E+000	2.528668546334984E+000
1.5433863E+000	2.661199749108125E+000
1.5467302E+000	2.800334238502289E+000
1.5500778E+000	2.942884523456023E+000
1.5534259E+000	3.087643863878307E+000
1.5567498E+000	3.239029097982630E+000
1.5601040E+000	3.387335127915648E+000
1.5634377E+000	3.535959483133930E+000
1.5667578E+000	3.699453724781179E+000
1.5701143E+000	3.859689725190854E+000
1.5734611E+000	4.018451357927233E+000
1.5767893E+000	4.190133973430228E+000
1.5801276E+000	4.389080464016232E+000
1.5834550E+000	4.538268942957409E+000
1.5867964E+000	4.702152870944914E+000
1.5901325E+000	4.914618394946601E+000
1.5934783E+000	5.093113010762032E+000
1.5968244E+000	5.262693405296159E+000
1.6001710E+000	5.431814067721277E+000
1.6035045E+000	5.626444886201263E+000
1.6068392E+000	5.811422533134959E+000
1.6101766E+000	6.003770787135423E+000
1.6135097E+000	6.220924375912764E+000
1.6168575E+000	6.402781017554791E+000
1.6201901E+000	6.608411394309222E+000
1.6235273E+000	6.797211804850377E+000
1.6268680E+000	7.051775138133394E+000
1.6302049E+000	7.241864554816999E+000
1.6335465E+000	7.472685514524215E+000
1.6368977E+000	7.652597748247558E+000
1.6402236E+000	7.880066836339115E+000
1.6435462E+000	8.108811568403226E+000
1.6468843E+000	8.315855916804367E+000
1.6502180E+000	8.551794221747258E+000
1.6535671E+000	8.745741004411101E+000
1.6569157E+000	8.964378968304146E+000
1.6602551E+000	9.159476535950091E+000
1.6635947E+000	9.393705745829095E+000
1.6669447E+000	9.664533907746261E+000
1.6702849E+000	9.866593634583978E+000
1.6736188E+000	1.011516402165249E+001
1.6769496E+000	1.031848141797035E+001
1.6802789E+000	1.057124220481546E+001
1.6836317E+000	1.079968466028566E+001
1.6870517E+000	1.105949030432036E+001
1.6904051E+000	1.132102085281433E+001
1.6937366E+000	1.155488511465944E+001
1.6970752E+000	1.183561963923353E+001
1.7004212E+000	1.206586558849915E+001
1.7037542E+000	1.231824456761689E+001
1.7071011E+000	1.254157862020097E+001
1.7104610E+000	1.276683241573055E+001
1.7137951E+000	1.303286346524223E+001
1.7171420E+000	1.326397773540000E+001
1.7204605E+000	1.350033362149294E+001
1.7238150E+000	1.374390053244605E+001
1.7271240E+000	1.400493085386407E+001
1.7304581E+000	1.428227571355967E+001
1.7337930E+000	1.453087016619918E+001
1.7371391E+000	1.476281532164846E+001
1.7404734E+000	1.501446252525886E+001
1.7437946E+000	1.523550662336748E+001
1.7471644E+000	1.545288897642288E+001
1.7504917E+000	1.575171550602190E+001
1.7538494E+000	1.600343090317833E+001
1.7571731E+000	1.625797048741282E+001
1.7604952E+000	1.645297303196395E+001
1.7638314E+000	1.671289201014804E+001
1.7671667E+000	1.699757199415449E+001
1.7704788E+000	1.721505380839736E+001
1.7738403E+000	1.745292694346583E+001
1.7771872E+000	1.765562949861987E+001
1.7805290E+000	1.793529837955072E+001
1.7838662E+000	1.809426453602541E+001
1.7872167E+000	1.848444385704597E+001
1.7905638E+000	1.871967853466560E+001
1.7939088E+000	1.894683300826657E+001
1.7972550E+000	1.921904375714942E+001
1.8005837E+000	1.944331887640209E+001
1.8039163E+000	1.968145887030471E+001
1.8072658E+000	1.993395214668882E+001
1.8106064E+000	2.016087545063020E+001
1.8139250E+000	2.041835954394847E+001
1.8172797E+000	2.077467276584639E+001
1.8206277E+000	2.095999651427024E+001
1.8239648E+000	2.123310088311699E+001
1.8273004E+000	2.149915374527683E+001
1.8306276E+000	2.176160011055239E+001
1.8339683E+000	2.198477187674105E+001
1.8373079E+000	2.215248641657718E+001
1.8406333E+000	2.246515031631861E+001
1.8439760E+000	2.287201996503717E+001
1.8472967E+000	2.316037202047329E+001
1.8496335E+000	2.328276327942729E+001
1.8504567E+000	2.337113007632168E+001