May 9, 2026   12:11:00
Linear Sweep Voltammetry
File: e:\xdq\20260509\ce0.05\lsv-ir-3-1.34.txt
Data Source:  Experiment
Instrument Model:  CHI660E
Header: 
Note: 

Init E (V) = 1.42
Final E (V) = 1.92
Scan Rate (V/s) = 0.005
Sample Interval (V) = 0.001
Quiet Time (sec) = 2
Sensitivity (A/V) = 0.01
Comp R (ohm) = 1.3

Results:

Channel 1:

Potential/V, Current/A

1.420, 7.996e-4
1.421, 7.729e-4
1.422, 7.444e-4
1.423, 7.182e-4
1.424, 6.946e-4
1.425, 6.722e-4
1.426, 6.521e-4
1.427, 6.341e-4
1.428, 6.176e-4
1.429, 6.021e-4
1.430, 5.884e-4
1.431, 5.758e-4
1.432, 5.642e-4
1.433, 5.541e-4
1.434, 5.449e-4
1.435, 5.363e-4
1.436, 5.286e-4
1.437, 5.219e-4
1.438, 5.159e-4
1.439, 5.109e-4
1.440, 5.065e-4
1.441, 5.028e-4
1.442, 4.998e-4
1.443, 4.980e-4
1.444, 4.962e-4
1.445, 4.950e-4
1.446, 4.947e-4
1.447, 4.946e-4
1.448, 4.950e-4
1.449, 4.962e-4
1.450, 4.980e-4
1.451, 5.002e-4
1.452, 5.034e-4
1.453, 5.071e-4
1.454, 5.111e-4
1.455, 5.155e-4
1.456, 5.210e-4
1.457, 5.269e-4
1.458, 5.334e-4
1.459, 5.404e-4
1.460, 5.480e-4
1.461, 5.554e-4
1.462, 5.642e-4
1.463, 5.737e-4
1.464, 5.837e-4
1.465, 5.943e-4
1.466, 6.056e-4
1.467, 6.177e-4
1.468, 6.304e-4
1.469, 6.437e-4
1.470, 6.579e-4
1.471, 6.727e-4
1.472, 6.883e-4
1.473, 7.046e-4
1.474, 7.213e-4
1.475, 7.389e-4
1.476, 7.577e-4
1.477, 7.768e-4
1.478, 7.968e-4
1.479, 8.177e-4
1.480, 8.390e-4
1.481, 8.617e-4
1.482, 8.847e-4
1.483, 9.090e-4
1.484, 9.337e-4
1.485, 9.590e-4
1.486, 9.856e-4
1.487, 1.013e-3
1.488, 1.041e-3
1.489, 1.070e-3
1.490, 1.099e-3
1.491, 1.130e-3
1.492, 1.163e-3
1.493, 1.197e-3
1.494, 1.231e-3
1.495, 1.267e-3
1.496, 1.303e-3
1.497, 1.340e-3
1.498, 1.378e-3
1.499, 1.418e-3
1.500, 1.458e-3
1.501, 1.500e-3
1.502, 1.543e-3
1.503, 1.587e-3
1.504, 1.632e-3
1.505, 1.678e-3
1.506, 1.725e-3
1.507, 1.774e-3
1.508, 1.824e-3
1.509, 1.875e-3
1.510, 1.927e-3
1.511, 1.980e-3
1.512, 2.034e-3
1.513, 2.090e-3
1.514, 2.147e-3
1.515, 2.205e-3
1.516, 2.265e-3
1.517, 2.326e-3
1.518, 2.389e-3
1.519, 2.453e-3
1.520, 2.519e-3
1.521, 2.586e-3
1.522, 2.653e-3
1.523, 2.721e-3
1.524, 2.790e-3
1.525, 2.860e-3
1.526, 2.932e-3
1.527, 3.006e-3
1.528, 3.081e-3
1.529, 3.155e-3
1.530, 3.233e-3
1.531, 3.313e-3
1.532, 3.391e-3
1.533, 3.471e-3
1.534, 3.550e-3
1.535, 3.634e-3
1.536, 3.720e-3
1.537, 3.808e-3
1.538, 3.896e-3
1.539, 3.986e-3
1.540, 4.079e-3
1.541, 4.170e-3
1.542, 4.266e-3
1.543, 4.361e-3
1.544, 4.456e-3
1.545, 4.555e-3
1.546, 4.658e-3
1.547, 4.758e-3
1.548, 4.859e-3
1.549, 4.965e-3
1.550, 5.075e-3
1.551, 5.186e-3
1.552, 5.294e-3
1.553, 5.405e-3
1.554, 5.517e-3
1.555, 5.634e-3
1.556, 5.753e-3
1.557, 5.872e-3
1.558, 5.993e-3
1.559, 6.117e-3
1.560, 6.241e-3
1.561, 6.365e-3
1.562, 6.496e-3
1.563, 6.624e-3
1.564, 6.759e-3
1.565, 6.896e-3
1.566, 7.032e-3
1.567, 7.168e-3
1.568, 7.309e-3
1.569, 7.456e-3
1.570, 7.601e-3
1.571, 7.744e-3
1.572, 7.893e-3
1.573, 8.050e-3
1.574, 8.211e-3
1.575, 8.377e-3
1.576, 8.534e-3
1.577, 8.696e-3
1.578, 8.863e-3
1.579, 9.021e-3
1.580, 9.188e-3
1.581, 9.359e-3
1.582, 9.541e-3
1.583, 9.708e-3
1.584, 9.886e-3
1.585, 1.007e-2
1.586, 1.024e-2
1.587, 1.042e-2
1.588, 1.060e-2
1.589, 1.079e-2
1.590, 1.098e-2
1.591, 1.118e-2
1.592, 1.137e-2
1.593, 1.157e-2
1.594, 1.177e-2
1.595, 1.197e-2
1.596, 1.217e-2
1.597, 1.237e-2
1.598, 1.258e-2
1.599, 1.278e-2
1.600, 1.299e-2
1.601, 1.321e-2
1.602, 1.342e-2
1.603, 1.363e-2
1.604, 1.386e-2
1.605, 1.408e-2
1.606, 1.430e-2
1.607, 1.453e-2
1.608, 1.478e-2
1.609, 1.501e-2
1.610, 1.522e-2
1.611, 1.546e-2
1.612, 1.570e-2
1.613, 1.593e-2
1.614, 1.616e-2
1.615, 1.639e-2
1.616, 1.664e-2
1.617, 1.688e-2
1.618, 1.711e-2
1.619, 1.735e-2
1.620, 1.760e-2
1.621, 1.786e-2
1.622, 1.812e-2
1.623, 1.839e-2
1.624, 1.861e-2
1.625, 1.884e-2
1.626, 1.910e-2
1.627, 1.936e-2
1.628, 1.962e-2
1.629, 1.988e-2
1.630, 2.015e-2
1.631, 2.041e-2
1.632, 2.067e-2
1.633, 2.092e-2
1.634, 2.120e-2
1.635, 2.145e-2
1.636, 2.172e-2
1.637, 2.198e-2
1.638, 2.227e-2
1.639, 2.255e-2
1.640, 2.284e-2
1.641, 2.313e-2
1.642, 2.341e-2
1.643, 2.370e-2
1.644, 2.397e-2
1.645, 2.423e-2
1.646, 2.453e-2
1.647, 2.484e-2
1.648, 2.519e-2
1.649, 2.542e-2
1.650, 2.568e-2
1.651, 2.600e-2
1.652, 2.633e-2
1.653, 2.659e-2
1.654, 2.686e-2
1.655, 2.714e-2
1.656, 2.743e-2
1.657, 2.772e-2
1.658, 2.800e-2
1.659, 2.828e-2
1.660, 2.858e-2
1.661, 2.888e-2
1.662, 2.919e-2
1.663, 2.947e-2
1.664, 2.976e-2
1.665, 3.005e-2
1.666, 3.033e-2
1.667, 3.061e-2
1.668, 3.088e-2
1.669, 3.120e-2
1.670, 3.153e-2
1.671, 3.185e-2
1.672, 3.215e-2
1.673, 3.247e-2
1.674, 3.283e-2
1.675, 3.327e-2
1.676, 3.354e-2
1.677, 3.384e-2
1.678, 3.417e-2
1.679, 3.443e-2
1.680, 3.472e-2
1.681, 3.498e-2
1.682, 3.521e-2
1.683, 3.556e-2
1.684, 3.591e-2
1.685, 3.627e-2
1.686, 3.658e-2
1.687, 3.684e-2
1.688, 3.713e-2
1.689, 3.752e-2
1.690, 3.786e-2
1.691, 3.817e-2
1.692, 3.842e-2
1.693, 3.868e-2
1.694, 3.899e-2
1.695, 3.931e-2
1.696, 3.962e-2
1.697, 4.005e-2
1.698, 4.037e-2
1.699, 4.063e-2
1.700, 4.093e-2
1.701, 4.122e-2
1.702, 4.152e-2
1.703, 4.188e-2
1.704, 4.217e-2
1.705, 4.243e-2
1.706, 4.274e-2
1.707, 4.304e-2
1.708, 4.330e-2
1.709, 4.362e-2
1.710, 4.397e-2
1.711, 4.437e-2
1.712, 4.478e-2
1.713, 4.509e-2
1.714, 4.532e-2
1.715, 4.562e-2
1.716, 4.608e-2
1.717, 4.641e-2
1.718, 4.668e-2
1.719, 4.694e-2
1.720, 4.727e-2
1.721, 4.753e-2
1.722, 4.779e-2
1.723, 4.804e-2
1.724, 4.834e-2
1.725, 4.871e-2
1.726, 4.896e-2
1.727, 4.924e-2
1.728, 4.952e-2
1.729, 4.979e-2
1.730, 5.011e-2
1.731, 5.039e-2
1.732, 5.081e-2
1.733, 5.112e-2
1.734, 5.136e-2
1.735, 5.158e-2
1.736, 5.189e-2
1.737, 5.217e-2
1.738, 5.259e-2
1.739, 5.290e-2
1.740, 5.315e-2
1.741, 5.338e-2
1.742, 5.366e-2
1.743, 5.392e-2
1.744, 5.424e-2
1.745, 5.452e-2
1.746, 5.484e-2
1.747, 5.521e-2
1.748, 5.564e-2
1.749, 5.585e-2
1.750, 5.615e-2
1.751, 5.647e-2
1.752, 5.676e-2
1.753, 5.711e-2
1.754, 5.741e-2
1.755, 5.763e-2
1.756, 5.793e-2
1.757, 5.815e-2
1.758, 5.842e-2
1.759, 5.870e-2
1.760, 5.899e-2
1.761, 5.927e-2
1.762, 5.972e-2
1.763, 5.997e-2
1.764, 6.009e-2
1.765, 6.028e-2
1.766, 6.054e-2
1.767, 6.082e-2
1.768, 6.114e-2
1.769, 6.139e-2
1.770, 6.163e-2
1.771, 6.186e-2
1.772, 6.206e-2
1.773, 6.231e-2
1.774, 6.271e-2
1.775, 6.307e-2
1.776, 6.332e-2
1.777, 6.359e-2
1.778, 6.380e-2
1.779, 6.391e-2
1.780, 6.417e-2
1.781, 6.440e-2
1.782, 6.460e-2
1.783, 6.492e-2
1.784, 6.519e-2
1.785, 6.541e-2
1.786, 6.583e-2
1.787, 6.617e-2
1.788, 6.633e-2
1.789, 6.649e-2
1.790, 6.665e-2
1.791, 6.692e-2
1.792, 6.711e-2
1.793, 6.729e-2
1.794, 6.756e-2
1.795, 6.762e-2
1.796, 6.784e-2
1.797, 6.806e-2
1.798, 6.858e-2
1.799, 6.877e-2
1.800, 6.889e-2
1.801, 6.900e-2
1.802, 6.929e-2
1.803, 6.991e-2
1.804, 7.008e-2
1.805, 7.015e-2
1.806, 7.035e-2
1.807, 7.058e-2
1.808, 7.091e-2
1.809, 7.116e-2
1.810, 7.138e-2
1.811, 7.148e-2
1.812, 7.164e-2
1.813, 7.182e-2
1.814, 7.196e-2
1.815, 7.217e-2
1.816, 7.238e-2
1.817, 7.249e-2
1.818, 7.262e-2
1.819, 7.285e-2
1.820, 7.318e-2
1.821, 7.336e-2
1.822, 7.365e-2
1.823, 7.387e-2
1.824, 7.401e-2
1.825, 7.414e-2
1.826, 7.446e-2
1.827, 7.482e-2
1.828, 7.484e-2
1.829, 7.498e-2
1.830, 7.523e-2
1.831, 7.562e-2
1.832, 7.566e-2
1.833, 7.578e-2
1.834, 7.594e-2
1.835, 7.602e-2
1.836, 7.643e-2
1.837, 7.665e-2
1.838, 7.677e-2
1.839, 7.695e-2
1.840, 7.704e-2
1.841, 7.742e-2
1.842, 7.754e-2
1.843, 7.749e-2
1.844, 7.768e-2
1.845, 7.795e-2
1.846, 7.819e-2
1.847, 7.831e-2
1.848, 7.846e-2
1.849, 7.862e-2
1.850, 7.877e-2
1.851, 7.901e-2
1.852, 7.920e-2
1.853, 7.932e-2
1.854, 7.941e-2
1.855, 7.951e-2
1.856, 7.967e-2
1.857, 7.973e-2
1.858, 8.021e-2
1.859, 8.038e-2
1.860, 8.042e-2
1.861, 8.061e-2
1.862, 8.079e-2
1.863, 8.086e-2
1.864, 8.108e-2
1.865, 8.129e-2
1.866, 8.117e-2
1.867, 8.126e-2
1.868, 8.154e-2
1.869, 8.162e-2
1.870, 8.201e-2
1.871, 8.233e-2
1.872, 8.234e-2
1.873, 8.236e-2
1.874, 8.248e-2
1.875, 8.260e-2
1.876, 8.266e-2
1.877, 8.297e-2
1.878, 8.314e-2
1.879, 8.328e-2
1.880, 8.363e-2
1.881, 8.354e-2
1.882, 8.350e-2
1.883, 8.354e-2
1.884, 8.379e-2
1.885, 8.372e-2
1.886, 8.385e-2
1.887, 8.392e-2
1.888, 8.410e-2
1.889, 8.449e-2
1.890, 8.459e-2
1.891, 8.492e-2
1.892, 8.490e-2
1.893, 8.494e-2
1.894, 8.501e-2
1.895, 8.504e-2
1.896, 8.515e-2
1.897, 8.521e-2
1.898, 8.549e-2
1.899, 8.549e-2
1.900, 8.566e-2
1.901, 8.597e-2
1.902, 8.592e-2
1.903, 8.607e-2
1.904, 8.620e-2
1.905, 8.621e-2
1.906, 8.625e-2
1.907, 8.645e-2
1.908, 8.662e-2
1.909, 8.650e-2
1.910, 8.662e-2
1.911, 8.701e-2
1.912, 8.706e-2
1.913, 8.717e-2
1.914, 8.743e-2
1.915, 8.772e-2
1.916, 8.758e-2
1.917, 8.756e-2
1.918, 8.753e-2
1.919, 8.758e-2
