May 9, 2026   12:07:24
Linear Sweep Voltammetry
File: e:\xdq\20260509\ce0.05\lsv-3.txt
Data Source:  Experiment
Instrument Model:  CHI660E
Header: 
Note: 

Init E (V) = 1.42
Final E (V) = 1.92
Scan Rate (V/s) = 0.005
Sample Interval (V) = 0.001
Quiet Time (sec) = 2
Sensitivity (A/V) = 0.01

Results:

Channel 1:

Potential/V, Current/A

1.420, 6.155e-5
1.421, 7.303e-5
1.422, 7.690e-5
1.423, 7.958e-5
1.424, 8.218e-5
1.425, 8.461e-5
1.426, 8.701e-5
1.427, 8.964e-5
1.428, 9.222e-5
1.429, 9.466e-5
1.430, 9.744e-5
1.431, 1.003e-4
1.432, 1.031e-4
1.433, 1.064e-4
1.434, 1.098e-4
1.435, 1.129e-4
1.436, 1.163e-4
1.437, 1.199e-4
1.438, 1.235e-4
1.439, 1.274e-4
1.440, 1.315e-4
1.441, 1.358e-4
1.442, 1.400e-4
1.443, 1.446e-4
1.444, 1.493e-4
1.445, 1.541e-4
1.446, 1.594e-4
1.447, 1.647e-4
1.448, 1.699e-4
1.449, 1.757e-4
1.450, 1.818e-4
1.451, 1.881e-4
1.452, 1.948e-4
1.453, 2.016e-4
1.454, 2.086e-4
1.455, 2.161e-4
1.456, 2.237e-4
1.457, 2.317e-4
1.458, 2.398e-4
1.459, 2.485e-4
1.460, 2.575e-4
1.461, 2.666e-4
1.462, 2.763e-4
1.463, 2.862e-4
1.464, 2.965e-4
1.465, 3.071e-4
1.466, 3.181e-4
1.467, 3.296e-4
1.468, 3.414e-4
1.469, 3.536e-4
1.470, 3.665e-4
1.471, 3.793e-4
1.472, 3.929e-4
1.473, 4.070e-4
1.474, 4.213e-4
1.475, 4.362e-4
1.476, 4.517e-4
1.477, 4.674e-4
1.478, 4.841e-4
1.479, 5.011e-4
1.480, 5.185e-4
1.481, 5.366e-4
1.482, 5.548e-4
1.483, 5.735e-4
1.484, 5.932e-4
1.485, 6.135e-4
1.486, 6.342e-4
1.487, 6.555e-4
1.488, 6.775e-4
1.489, 7.002e-4
1.490, 7.233e-4
1.491, 7.474e-4
1.492, 7.723e-4
1.493, 7.971e-4
1.494, 8.231e-4
1.495, 8.496e-4
1.496, 8.765e-4
1.497, 9.047e-4
1.498, 9.334e-4
1.499, 9.625e-4
1.500, 9.923e-4
1.501, 1.023e-3
1.502, 1.055e-3
1.503, 1.087e-3
1.504, 1.120e-3
1.505, 1.154e-3
1.506, 1.189e-3
1.507, 1.223e-3
1.508, 1.260e-3
1.509, 1.297e-3
1.510, 1.335e-3
1.511, 1.373e-3
1.512, 1.412e-3
1.513, 1.452e-3
1.514, 1.493e-3
1.515, 1.535e-3
1.516, 1.579e-3
1.517, 1.622e-3
1.518, 1.666e-3
1.519, 1.711e-3
1.520, 1.757e-3
1.521, 1.804e-3
1.522, 1.852e-3
1.523, 1.901e-3
1.524, 1.951e-3
1.525, 2.001e-3
1.526, 2.052e-3
1.527, 2.104e-3
1.528, 2.156e-3
1.529, 2.210e-3
1.530, 2.264e-3
1.531, 2.321e-3
1.532, 2.378e-3
1.533, 2.436e-3
1.534, 2.495e-3
1.535, 2.554e-3
1.536, 2.615e-3
1.537, 2.676e-3
1.538, 2.738e-3
1.539, 2.801e-3
1.540, 2.864e-3
1.541, 2.929e-3
1.542, 2.994e-3
1.543, 3.061e-3
1.544, 3.131e-3
1.545, 3.200e-3
1.546, 3.268e-3
1.547, 3.337e-3
1.548, 3.409e-3
1.549, 3.482e-3
1.550, 3.556e-3
1.551, 3.629e-3
1.552, 3.705e-3
1.553, 3.783e-3
1.554, 3.860e-3
1.555, 3.941e-3
1.556, 4.018e-3
1.557, 4.097e-3
1.558, 4.177e-3
1.559, 4.259e-3
1.560, 4.343e-3
1.561, 4.429e-3
1.562, 4.515e-3
1.563, 4.602e-3
1.564, 4.691e-3
1.565, 4.780e-3
1.566, 4.872e-3
1.567, 4.965e-3
1.568, 5.058e-3
1.569, 5.153e-3
1.570, 5.249e-3
1.571, 5.348e-3
1.572, 5.444e-3
1.573, 5.543e-3
1.574, 5.643e-3
1.575, 5.741e-3
1.576, 5.845e-3
1.577, 5.949e-3
1.578, 6.054e-3
1.579, 6.162e-3
1.580, 6.268e-3
1.581, 6.370e-3
1.582, 6.475e-3
1.583, 6.583e-3
1.584, 6.697e-3
1.585, 6.811e-3
1.586, 6.920e-3
1.587, 7.035e-3
1.588, 7.156e-3
1.589, 7.275e-3
1.590, 7.398e-3
1.591, 7.513e-3
1.592, 7.624e-3
1.593, 7.742e-3
1.594, 7.867e-3
1.595, 7.992e-3
1.596, 8.116e-3
1.597, 8.245e-3
1.598, 8.370e-3
1.599, 8.496e-3
1.600, 8.627e-3
1.601, 8.762e-3
1.602, 8.901e-3
1.603, 9.034e-3
1.604, 9.157e-3
1.605, 9.282e-3
1.606, 9.418e-3
1.607, 9.559e-3
1.608, 9.697e-3
1.609, 9.834e-3
1.610, 9.967e-3
1.611, 1.010e-2
1.612, 1.024e-2
1.613, 1.038e-2
1.614, 1.051e-2
1.615, 1.065e-2
1.616, 1.079e-2
1.617, 1.093e-2
1.618, 1.108e-2
1.619, 1.123e-2
1.620, 1.138e-2
1.621, 1.153e-2
1.622, 1.169e-2
1.623, 1.183e-2
1.624, 1.197e-2
1.625, 1.211e-2
1.626, 1.226e-2
1.627, 1.241e-2
1.628, 1.257e-2
1.629, 1.272e-2
1.630, 1.287e-2
1.631, 1.303e-2
1.632, 1.317e-2
1.633, 1.332e-2
1.634, 1.347e-2
1.635, 1.362e-2
1.636, 1.378e-2
1.637, 1.394e-2
1.638, 1.410e-2
1.639, 1.426e-2
1.640, 1.442e-2
1.641, 1.458e-2
1.642, 1.475e-2
1.643, 1.493e-2
1.644, 1.510e-2
1.645, 1.526e-2
1.646, 1.541e-2
1.647, 1.557e-2
1.648, 1.574e-2
1.649, 1.591e-2
1.650, 1.607e-2
1.651, 1.624e-2
1.652, 1.640e-2
1.653, 1.657e-2
1.654, 1.674e-2
1.655, 1.691e-2
1.656, 1.708e-2
1.657, 1.725e-2
1.658, 1.744e-2
1.659, 1.761e-2
1.660, 1.777e-2
1.661, 1.795e-2
1.662, 1.812e-2
1.663, 1.828e-2
1.664, 1.844e-2
1.665, 1.862e-2
1.666, 1.884e-2
1.667, 1.901e-2
1.668, 1.917e-2
1.669, 1.933e-2
1.670, 1.951e-2
1.671, 1.970e-2
1.672, 1.988e-2
1.673, 2.005e-2
1.674, 2.021e-2
1.675, 2.040e-2
1.676, 2.058e-2
1.677, 2.075e-2
1.678, 2.093e-2
1.679, 2.111e-2
1.680, 2.127e-2
1.681, 2.143e-2
1.682, 2.161e-2
1.683, 2.181e-2
1.684, 2.198e-2
1.685, 2.216e-2
1.686, 2.235e-2
1.687, 2.252e-2
1.688, 2.270e-2
1.689, 2.288e-2
1.690, 2.304e-2
1.691, 2.324e-2
1.692, 2.342e-2
1.693, 2.359e-2
1.694, 2.378e-2
1.695, 2.398e-2
1.696, 2.415e-2
1.697, 2.433e-2
1.698, 2.451e-2
1.699, 2.468e-2
1.700, 2.488e-2
1.701, 2.509e-2
1.702, 2.526e-2
1.703, 2.544e-2
1.704, 2.563e-2
1.705, 2.580e-2
1.706, 2.597e-2
1.707, 2.614e-2
1.708, 2.634e-2
1.709, 2.651e-2
1.710, 2.670e-2
1.711, 2.687e-2
1.712, 2.704e-2
1.713, 2.728e-2
1.714, 2.748e-2
1.715, 2.765e-2
1.716, 2.782e-2
1.717, 2.800e-2
1.718, 2.818e-2
1.719, 2.837e-2
1.720, 2.855e-2
1.721, 2.875e-2
1.722, 2.893e-2
1.723, 2.913e-2
1.724, 2.934e-2
1.725, 2.957e-2
1.726, 2.974e-2
1.727, 2.989e-2
1.728, 3.007e-2
1.729, 3.022e-2
1.730, 3.040e-2
1.731, 3.059e-2
1.732, 3.077e-2
1.733, 3.095e-2
1.734, 3.113e-2
1.735, 3.134e-2
1.736, 3.155e-2
1.737, 3.172e-2
1.738, 3.188e-2
1.739, 3.206e-2
1.740, 3.224e-2
1.741, 3.248e-2
1.742, 3.266e-2
1.743, 3.283e-2
1.744, 3.301e-2
1.745, 3.318e-2
1.746, 3.337e-2
1.747, 3.357e-2
1.748, 3.382e-2
1.749, 3.405e-2
1.750, 3.423e-2
1.751, 3.439e-2
1.752, 3.458e-2
1.753, 3.474e-2
1.754, 3.492e-2
1.755, 3.513e-2
1.756, 3.532e-2
1.757, 3.549e-2
1.758, 3.564e-2
1.759, 3.583e-2
1.760, 3.604e-2
1.761, 3.623e-2
1.762, 3.642e-2
1.763, 3.658e-2
1.764, 3.672e-2
1.765, 3.691e-2
1.766, 3.710e-2
1.767, 3.730e-2
1.768, 3.750e-2
1.769, 3.766e-2
1.770, 3.789e-2
1.771, 3.811e-2
1.772, 3.826e-2
1.773, 3.841e-2
1.774, 3.856e-2
1.775, 3.870e-2
1.776, 3.888e-2
1.777, 3.907e-2
1.778, 3.932e-2
1.779, 3.955e-2
1.780, 3.969e-2
1.781, 3.987e-2
1.782, 4.008e-2
1.783, 4.024e-2
1.784, 4.039e-2
1.785, 4.057e-2
1.786, 4.075e-2
1.787, 4.094e-2
1.788, 4.115e-2
1.789, 4.131e-2
1.790, 4.154e-2
1.791, 4.170e-2
1.792, 4.189e-2
1.793, 4.208e-2
1.794, 4.229e-2
1.795, 4.246e-2
1.796, 4.263e-2
1.797, 4.283e-2
1.798, 4.300e-2
1.799, 4.320e-2
1.800, 4.333e-2
1.801, 4.347e-2
1.802, 4.365e-2
1.803, 4.377e-2
1.804, 4.392e-2
1.805, 4.411e-2
1.806, 4.439e-2
1.807, 4.458e-2
1.808, 4.475e-2
1.809, 4.495e-2
1.810, 4.509e-2
1.811, 4.524e-2
1.812, 4.538e-2
1.813, 4.555e-2
1.814, 4.573e-2
1.815, 4.590e-2
1.816, 4.607e-2
1.817, 4.624e-2
1.818, 4.646e-2
1.819, 4.661e-2
1.820, 4.677e-2
1.821, 4.690e-2
1.822, 4.704e-2
1.823, 4.724e-2
1.824, 4.741e-2
1.825, 4.758e-2
1.826, 4.781e-2
1.827, 4.797e-2
1.828, 4.810e-2
1.829, 4.825e-2
1.830, 4.846e-2
1.831, 4.871e-2
1.832, 4.891e-2
1.833, 4.908e-2
1.834, 4.916e-2
1.835, 4.932e-2
1.836, 4.950e-2
1.837, 4.966e-2
1.838, 4.982e-2
1.839, 4.996e-2
1.840, 5.013e-2
1.841, 5.030e-2
1.842, 5.055e-2
1.843, 5.078e-2
1.844, 5.091e-2
1.845, 5.105e-2
1.846, 5.120e-2
1.847, 5.132e-2
1.848, 5.145e-2
1.849, 5.160e-2
1.850, 5.178e-2
1.851, 5.199e-2
1.852, 5.220e-2
1.853, 5.239e-2
1.854, 5.249e-2
1.855, 5.262e-2
1.856, 5.282e-2
1.857, 5.303e-2
1.858, 5.315e-2
1.859, 5.336e-2
1.860, 5.355e-2
1.861, 5.369e-2
1.862, 5.385e-2
1.863, 5.403e-2
1.864, 5.415e-2
1.865, 5.431e-2
1.866, 5.446e-2
1.867, 5.457e-2
1.868, 5.473e-2
1.869, 5.487e-2
1.870, 5.500e-2
1.871, 5.517e-2
1.872, 5.540e-2
1.873, 5.560e-2
1.874, 5.573e-2
1.875, 5.588e-2
1.876, 5.599e-2
1.877, 5.612e-2
1.878, 5.627e-2
1.879, 5.647e-2
1.880, 5.668e-2
1.881, 5.680e-2
1.882, 5.697e-2
1.883, 5.714e-2
1.884, 5.725e-2
1.885, 5.742e-2
1.886, 5.762e-2
1.887, 5.773e-2
1.888, 5.780e-2
1.889, 5.806e-2
1.890, 5.815e-2
1.891, 5.822e-2
1.892, 5.836e-2
1.893, 5.850e-2
1.894, 5.864e-2
1.895, 5.880e-2
1.896, 5.895e-2
1.897, 5.910e-2
1.898, 5.924e-2
1.899, 5.944e-2
1.900, 5.960e-2
1.901, 5.972e-2
1.902, 5.985e-2
1.903, 5.996e-2
1.904, 6.012e-2
1.905, 6.040e-2
1.906, 6.050e-2
1.907, 6.058e-2
1.908, 6.075e-2
1.909, 6.089e-2
1.910, 6.124e-2
1.911, 6.143e-2
1.912, 6.156e-2
1.913, 6.166e-2
1.914, 6.171e-2
1.915, 6.187e-2
1.916, 6.197e-2
1.917, 6.205e-2
1.918, 6.220e-2
1.919, 6.244e-2
