May 9, 2026   11:59:32
Linear Sweep Voltammetry
File: e:\xdq\20260509\ce0.05\lsv-ir-1-1.37.txt
Data Source:  Experiment
Instrument Model:  CHI660E
Header: 
Note: 

Init E (V) = 1.42
Final E (V) = 1.92
Scan Rate (V/s) = 0.005
Sample Interval (V) = 0.001
Quiet Time (sec) = 2
Sensitivity (A/V) = 0.01
Comp R (ohm) = 1.4

Results:

Channel 1:

Potential/V, Current/A

1.420, 9.735e-4
1.421, 9.345e-4
1.422, 8.953e-4
1.423, 8.597e-4
1.424, 8.280e-4
1.425, 7.998e-4
1.426, 7.748e-4
1.427, 7.527e-4
1.428, 7.334e-4
1.429, 7.162e-4
1.430, 7.018e-4
1.431, 6.890e-4
1.432, 6.780e-4
1.433, 6.690e-4
1.434, 6.618e-4
1.435, 6.555e-4
1.436, 6.508e-4
1.437, 6.473e-4
1.438, 6.453e-4
1.439, 6.444e-4
1.440, 6.449e-4
1.441, 6.464e-4
1.442, 6.489e-4
1.443, 6.528e-4
1.444, 6.573e-4
1.445, 6.629e-4
1.446, 6.699e-4
1.447, 6.777e-4
1.448, 6.862e-4
1.449, 6.958e-4
1.450, 7.064e-4
1.451, 7.177e-4
1.452, 7.302e-4
1.453, 7.436e-4
1.454, 7.583e-4
1.455, 7.740e-4
1.456, 7.902e-4
1.457, 8.077e-4
1.458, 8.259e-4
1.459, 8.457e-4
1.460, 8.663e-4
1.461, 8.878e-4
1.462, 9.103e-4
1.463, 9.338e-4
1.464, 9.582e-4
1.465, 9.842e-4
1.466, 1.011e-3
1.467, 1.039e-3
1.468, 1.068e-3
1.469, 1.099e-3
1.470, 1.130e-3
1.471, 1.162e-3
1.472, 1.197e-3
1.473, 1.232e-3
1.474, 1.267e-3
1.475, 1.305e-3
1.476, 1.343e-3
1.477, 1.381e-3
1.478, 1.422e-3
1.479, 1.465e-3
1.480, 1.507e-3
1.481, 1.552e-3
1.482, 1.598e-3
1.483, 1.645e-3
1.484, 1.693e-3
1.485, 1.743e-3
1.486, 1.794e-3
1.487, 1.846e-3
1.488, 1.899e-3
1.489, 1.953e-3
1.490, 2.009e-3
1.491, 2.068e-3
1.492, 2.128e-3
1.493, 2.188e-3
1.494, 2.249e-3
1.495, 2.313e-3
1.496, 2.378e-3
1.497, 2.443e-3
1.498, 2.511e-3
1.499, 2.580e-3
1.500, 2.649e-3
1.501, 2.721e-3
1.502, 2.795e-3
1.503, 2.870e-3
1.504, 2.946e-3
1.505, 3.025e-3
1.506, 3.103e-3
1.507, 3.183e-3
1.508, 3.265e-3
1.509, 3.347e-3
1.510, 3.433e-3
1.511, 3.521e-3
1.512, 3.608e-3
1.513, 3.696e-3
1.514, 3.785e-3
1.515, 3.878e-3
1.516, 3.972e-3
1.517, 4.067e-3
1.518, 4.161e-3
1.519, 4.260e-3
1.520, 4.360e-3
1.521, 4.462e-3
1.522, 4.565e-3
1.523, 4.672e-3
1.524, 4.779e-3
1.525, 4.887e-3
1.526, 4.994e-3
1.527, 5.102e-3
1.528, 5.213e-3
1.529, 5.325e-3
1.530, 5.438e-3
1.531, 5.555e-3
1.532, 5.672e-3
1.533, 5.790e-3
1.534, 5.911e-3
1.535, 6.032e-3
1.536, 6.155e-3
1.537, 6.275e-3
1.538, 6.401e-3
1.539, 6.527e-3
1.540, 6.658e-3
1.541, 6.787e-3
1.542, 6.921e-3
1.543, 7.054e-3
1.544, 7.188e-3
1.545, 7.329e-3
1.546, 7.472e-3
1.547, 7.605e-3
1.548, 7.738e-3
1.549, 7.881e-3
1.550, 8.025e-3
1.551, 8.168e-3
1.552, 8.322e-3
1.553, 8.483e-3
1.554, 8.639e-3
1.555, 8.794e-3
1.556, 8.949e-3
1.557, 9.103e-3
1.558, 9.261e-3
1.559, 9.422e-3
1.560, 9.583e-3
1.561, 9.748e-3
1.562, 9.915e-3
1.563, 1.007e-2
1.564, 1.024e-2
1.565, 1.041e-2
1.566, 1.058e-2
1.567, 1.077e-2
1.568, 1.095e-2
1.569, 1.113e-2
1.570, 1.131e-2
1.571, 1.149e-2
1.572, 1.167e-2
1.573, 1.186e-2
1.574, 1.206e-2
1.575, 1.225e-2
1.576, 1.244e-2
1.577, 1.264e-2
1.578, 1.284e-2
1.579, 1.303e-2
1.580, 1.323e-2
1.581, 1.343e-2
1.582, 1.364e-2
1.583, 1.385e-2
1.584, 1.406e-2
1.585, 1.427e-2
1.586, 1.449e-2
1.587, 1.470e-2
1.588, 1.491e-2
1.589, 1.512e-2
1.590, 1.535e-2
1.591, 1.558e-2
1.592, 1.583e-2
1.593, 1.606e-2
1.594, 1.629e-2
1.595, 1.653e-2
1.596, 1.676e-2
1.597, 1.699e-2
1.598, 1.724e-2
1.599, 1.751e-2
1.600, 1.777e-2
1.601, 1.801e-2
1.602, 1.825e-2
1.603, 1.851e-2
1.604, 1.877e-2
1.605, 1.901e-2
1.606, 1.927e-2
1.607, 1.954e-2
1.608, 1.980e-2
1.609, 2.005e-2
1.610, 2.033e-2
1.611, 2.060e-2
1.612, 2.087e-2
1.613, 2.114e-2
1.614, 2.139e-2
1.615, 2.167e-2
1.616, 2.195e-2
1.617, 2.224e-2
1.618, 2.255e-2
1.619, 2.285e-2
1.620, 2.311e-2
1.621, 2.336e-2
1.622, 2.363e-2
1.623, 2.392e-2
1.624, 2.421e-2
1.625, 2.450e-2
1.626, 2.479e-2
1.627, 2.507e-2
1.628, 2.535e-2
1.629, 2.564e-2
1.630, 2.595e-2
1.631, 2.623e-2
1.632, 2.652e-2
1.633, 2.681e-2
1.634, 2.710e-2
1.635, 2.741e-2
1.636, 2.772e-2
1.637, 2.803e-2
1.638, 2.833e-2
1.639, 2.864e-2
1.640, 2.895e-2
1.641, 2.927e-2
1.642, 2.957e-2
1.643, 2.989e-2
1.644, 3.028e-2
1.645, 3.065e-2
1.646, 3.096e-2
1.647, 3.127e-2
1.648, 3.159e-2
1.649, 3.191e-2
1.650, 3.225e-2
1.651, 3.260e-2
1.652, 3.294e-2
1.653, 3.324e-2
1.654, 3.358e-2
1.655, 3.394e-2
1.656, 3.427e-2
1.657, 3.459e-2
1.658, 3.489e-2
1.659, 3.522e-2
1.660, 3.557e-2
1.661, 3.585e-2
1.662, 3.616e-2
1.663, 3.655e-2
1.664, 3.688e-2
1.665, 3.718e-2
1.666, 3.752e-2
1.667, 3.783e-2
1.668, 3.819e-2
1.669, 3.851e-2
1.670, 3.886e-2
1.671, 3.923e-2
1.672, 3.954e-2
1.673, 3.985e-2
1.674, 4.020e-2
1.675, 4.056e-2
1.676, 4.090e-2
1.677, 4.123e-2
1.678, 4.157e-2
1.679, 4.190e-2
1.680, 4.223e-2
1.681, 4.265e-2
1.682, 4.308e-2
1.683, 4.350e-2
1.684, 4.380e-2
1.685, 4.411e-2
1.686, 4.440e-2
1.687, 4.474e-2
1.688, 4.512e-2
1.689, 4.553e-2
1.690, 4.590e-2
1.691, 4.620e-2
1.692, 4.653e-2
1.693, 4.687e-2
1.694, 4.722e-2
1.695, 4.756e-2
1.696, 4.788e-2
1.697, 4.822e-2
1.698, 4.860e-2
1.699, 4.892e-2
1.700, 4.924e-2
1.701, 4.959e-2
1.702, 4.999e-2
1.703, 5.040e-2
1.704, 5.075e-2
1.705, 5.117e-2
1.706, 5.162e-2
1.707, 5.199e-2
1.708, 5.234e-2
1.709, 5.268e-2
1.710, 5.300e-2
1.711, 5.327e-2
1.712, 5.359e-2
1.713, 5.389e-2
1.714, 5.425e-2
1.715, 5.454e-2
1.716, 5.484e-2
1.717, 5.517e-2
1.718, 5.551e-2
1.719, 5.582e-2
1.720, 5.610e-2
1.721, 5.649e-2
1.722, 5.689e-2
1.723, 5.719e-2
1.724, 5.751e-2
1.725, 5.788e-2
1.726, 5.825e-2
1.727, 5.859e-2
1.728, 5.890e-2
1.729, 5.928e-2
1.730, 5.978e-2
1.731, 6.007e-2
1.732, 6.030e-2
1.733, 6.077e-2
1.734, 6.132e-2
1.735, 6.171e-2
1.736, 6.197e-2
1.737, 6.229e-2
1.738, 6.256e-2
1.739, 6.289e-2
1.740, 6.332e-2
1.741, 6.360e-2
1.742, 6.390e-2
1.743, 6.422e-2
1.744, 6.456e-2
1.745, 6.490e-2
1.746, 6.525e-2
1.747, 6.552e-2
1.748, 6.584e-2
1.749, 6.615e-2
1.750, 6.647e-2
1.751, 6.674e-2
1.752, 6.704e-2
1.753, 6.728e-2
1.754, 6.774e-2
1.755, 6.813e-2
1.756, 6.840e-2
1.757, 6.886e-2
1.758, 6.925e-2
1.759, 6.957e-2
1.760, 7.001e-2
1.761, 7.038e-2
1.762, 7.062e-2
1.763, 7.084e-2
1.764, 7.109e-2
1.765, 7.152e-2
1.766, 7.183e-2
1.767, 7.205e-2
1.768, 7.234e-2
1.769, 7.258e-2
1.770, 7.281e-2
1.771, 7.317e-2
1.772, 7.344e-2
1.773, 7.381e-2
1.774, 7.411e-2
1.775, 7.449e-2
1.776, 7.480e-2
1.777, 7.507e-2
1.778, 7.542e-2
1.779, 7.569e-2
1.780, 7.591e-2
1.781, 7.622e-2
1.782, 7.643e-2
1.783, 7.662e-2
1.784, 7.691e-2
1.785, 7.711e-2
1.786, 7.753e-2
1.787, 7.792e-2
1.788, 7.820e-2
1.789, 7.861e-2
1.790, 7.900e-2
1.791, 7.921e-2
1.792, 7.955e-2
1.793, 7.977e-2
1.794, 7.992e-2
1.795, 8.009e-2
1.796, 8.021e-2
1.797, 8.047e-2
1.798, 8.069e-2
1.799, 8.096e-2
1.800, 8.137e-2
1.801, 8.155e-2
1.802, 8.202e-2
1.803, 8.234e-2
1.804, 8.269e-2
1.805, 8.286e-2
1.806, 8.306e-2
1.807, 8.325e-2
1.808, 8.345e-2
1.809, 8.371e-2
1.810, 8.392e-2
1.811, 8.410e-2
1.812, 8.426e-2
1.813, 8.445e-2
1.814, 8.474e-2
1.815, 8.501e-2
1.816, 8.523e-2
1.817, 8.558e-2
1.818, 8.614e-2
1.819, 8.654e-2
1.820, 8.669e-2
1.821, 8.676e-2
1.822, 8.692e-2
1.823, 8.717e-2
1.824, 8.734e-2
1.825, 8.752e-2
1.826, 8.785e-2
1.827, 8.845e-2
1.828, 8.875e-2
1.829, 8.890e-2
1.830, 8.903e-2
1.831, 8.919e-2
1.832, 8.937e-2
1.833, 8.941e-2
1.834, 8.956e-2
1.835, 8.969e-2
1.836, 8.983e-2
1.837, 9.010e-2
1.838, 9.036e-2
1.839, 9.046e-2
1.840, 9.060e-2
1.841, 9.115e-2
1.842, 9.155e-2
1.843, 9.196e-2
1.844, 9.199e-2
1.845, 9.207e-2
1.846, 9.213e-2
1.847, 9.223e-2
1.848, 9.241e-2
1.849, 9.265e-2
1.850, 9.293e-2
1.851, 9.326e-2
1.852, 9.350e-2
1.853, 9.357e-2
1.854, 9.368e-2
1.855, 9.376e-2
1.856, 9.389e-2
1.857, 9.414e-2
1.858, 9.418e-2
1.859, 9.437e-2
1.860, 9.461e-2
1.861, 9.476e-2
1.862, 9.511e-2
1.863, 9.578e-2
1.864, 9.596e-2
1.865, 9.592e-2
1.866, 9.610e-2
1.867, 9.624e-2
1.868, 9.628e-2
1.869, 9.642e-2
1.870, 9.653e-2
1.871, 9.669e-2
1.872, 9.682e-2
1.873, 9.692e-2
1.874, 9.745e-2
1.875, 9.745e-2
1.876, 9.751e-2
1.877, 9.756e-2
1.878, 9.759e-2
1.879, 9.770e-2
1.880, 9.784e-2
1.881, 9.793e-2
1.882, 9.839e-2
1.883, 9.848e-2
1.884, 9.852e-2
1.885, 9.882e-2
1.886, 9.898e-2
1.887, 9.893e-2
1.888, 9.909e-2
1.889, 9.922e-2
1.890, 9.923e-2
1.891, 9.914e-2
1.892, 9.946e-2
1.893, 9.963e-2
1.894, 9.986e-2
1.895, 9.990e-2
1.896, 9.995e-2
1.897, 9.999e-2
1.898, 1.002e-1
1.899, 1.004e-1
1.900, 1.005e-1
1.901, 1.006e-1
1.902, 1.006e-1
1.903, 1.006e-1
1.904, 1.006e-1
1.905, 1.006e-1
1.906, 1.006e-1
1.907, 1.006e-1
1.908, 1.006e-1
1.909, 1.006e-1
1.910, 1.006e-1
1.911, 1.006e-1
1.912, 1.006e-1
1.913, 1.006e-1
1.914, 1.006e-1
1.915, 1.006e-1
1.916, 1.006e-1
1.917, 1.006e-1
1.918, 1.006e-1
1.919, 1.006e-1
