May 9, 2026   12:04:59
Linear Sweep Voltammetry
File: e:\xdq\20260509\ce0.05\lsv-2-ir-1.39.txt
Data Source:  Experiment
Instrument Model:  CHI660E
Header: 
Note: 

Init E (V) = 1.42
Final E (V) = 1.92
Scan Rate (V/s) = 0.005
Sample Interval (V) = 0.001
Quiet Time (sec) = 2
Sensitivity (A/V) = 0.01
Comp R (ohm) = 1.4

Results:

Channel 1:

Potential/V, Current/A

1.420, 7.882e-4
1.421, 7.586e-4
1.422, 7.274e-4
1.423, 6.990e-4
1.424, 6.733e-4
1.425, 6.499e-4
1.426, 6.287e-4
1.427, 6.100e-4
1.428, 5.931e-4
1.429, 5.779e-4
1.430, 5.644e-4
1.431, 5.522e-4
1.432, 5.415e-4
1.433, 5.323e-4
1.434, 5.242e-4
1.435, 5.167e-4
1.436, 5.105e-4
1.437, 5.050e-4
1.438, 5.006e-4
1.439, 4.971e-4
1.440, 4.944e-4
1.441, 4.925e-4
1.442, 4.913e-4
1.443, 4.907e-4
1.444, 4.908e-4
1.445, 4.911e-4
1.446, 4.926e-4
1.447, 4.948e-4
1.448, 4.972e-4
1.449, 5.007e-4
1.450, 5.046e-4
1.451, 5.092e-4
1.452, 5.147e-4
1.453, 5.208e-4
1.454, 5.273e-4
1.455, 5.344e-4
1.456, 5.423e-4
1.457, 5.506e-4
1.458, 5.594e-4
1.459, 5.696e-4
1.460, 5.802e-4
1.461, 5.913e-4
1.462, 6.034e-4
1.463, 6.163e-4
1.464, 6.294e-4
1.465, 6.435e-4
1.466, 6.587e-4
1.467, 6.746e-4
1.468, 6.907e-4
1.469, 7.078e-4
1.470, 7.258e-4
1.471, 7.444e-4
1.472, 7.643e-4
1.473, 7.844e-4
1.474, 8.053e-4
1.475, 8.274e-4
1.476, 8.502e-4
1.477, 8.737e-4
1.478, 8.985e-4
1.479, 9.242e-4
1.480, 9.505e-4
1.481, 9.778e-4
1.482, 1.006e-3
1.483, 1.035e-3
1.484, 1.065e-3
1.485, 1.097e-3
1.486, 1.129e-3
1.487, 1.161e-3
1.488, 1.196e-3
1.489, 1.231e-3
1.490, 1.268e-3
1.491, 1.306e-3
1.492, 1.344e-3
1.493, 1.383e-3
1.494, 1.423e-3
1.495, 1.465e-3
1.496, 1.507e-3
1.497, 1.552e-3
1.498, 1.598e-3
1.499, 1.644e-3
1.500, 1.691e-3
1.501, 1.739e-3
1.502, 1.790e-3
1.503, 1.841e-3
1.504, 1.894e-3
1.505, 1.948e-3
1.506, 2.003e-3
1.507, 2.060e-3
1.508, 2.117e-3
1.509, 2.176e-3
1.510, 2.237e-3
1.511, 2.299e-3
1.512, 2.362e-3
1.513, 2.427e-3
1.514, 2.492e-3
1.515, 2.560e-3
1.516, 2.630e-3
1.517, 2.701e-3
1.518, 2.772e-3
1.519, 2.846e-3
1.520, 2.919e-3
1.521, 2.993e-3
1.522, 3.069e-3
1.523, 3.147e-3
1.524, 3.228e-3
1.525, 3.308e-3
1.526, 3.390e-3
1.527, 3.473e-3
1.528, 3.557e-3
1.529, 3.645e-3
1.530, 3.735e-3
1.531, 3.826e-3
1.532, 3.918e-3
1.533, 4.009e-3
1.534, 4.103e-3
1.535, 4.199e-3
1.536, 4.298e-3
1.537, 4.399e-3
1.538, 4.499e-3
1.539, 4.598e-3
1.540, 4.698e-3
1.541, 4.801e-3
1.542, 4.906e-3
1.543, 5.011e-3
1.544, 5.118e-3
1.545, 5.231e-3
1.546, 5.347e-3
1.547, 5.462e-3
1.548, 5.580e-3
1.549, 5.702e-3
1.550, 5.823e-3
1.551, 5.939e-3
1.552, 6.062e-3
1.553, 6.189e-3
1.554, 6.316e-3
1.555, 6.447e-3
1.556, 6.576e-3
1.557, 6.710e-3
1.558, 6.846e-3
1.559, 6.984e-3
1.560, 7.113e-3
1.561, 7.247e-3
1.562, 7.393e-3
1.563, 7.540e-3
1.564, 7.693e-3
1.565, 7.849e-3
1.566, 8.006e-3
1.567, 8.161e-3
1.568, 8.321e-3
1.569, 8.483e-3
1.570, 8.648e-3
1.571, 8.818e-3
1.572, 8.990e-3
1.573, 9.157e-3
1.574, 9.323e-3
1.575, 9.499e-3
1.576, 9.668e-3
1.577, 9.848e-3
1.578, 1.003e-2
1.579, 1.022e-2
1.580, 1.040e-2
1.581, 1.058e-2
1.582, 1.078e-2
1.583, 1.098e-2
1.584, 1.117e-2
1.585, 1.138e-2
1.586, 1.158e-2
1.587, 1.179e-2
1.588, 1.200e-2
1.589, 1.221e-2
1.590, 1.241e-2
1.591, 1.260e-2
1.592, 1.282e-2
1.593, 1.303e-2
1.594, 1.325e-2
1.595, 1.348e-2
1.596, 1.371e-2
1.597, 1.393e-2
1.598, 1.415e-2
1.599, 1.439e-2
1.600, 1.463e-2
1.601, 1.486e-2
1.602, 1.508e-2
1.603, 1.531e-2
1.604, 1.554e-2
1.605, 1.578e-2
1.606, 1.603e-2
1.607, 1.627e-2
1.608, 1.650e-2
1.609, 1.675e-2
1.610, 1.702e-2
1.611, 1.728e-2
1.612, 1.754e-2
1.613, 1.782e-2
1.614, 1.806e-2
1.615, 1.832e-2
1.616, 1.858e-2
1.617, 1.884e-2
1.618, 1.911e-2
1.619, 1.937e-2
1.620, 1.964e-2
1.621, 1.990e-2
1.622, 2.020e-2
1.623, 2.046e-2
1.624, 2.073e-2
1.625, 2.099e-2
1.626, 2.127e-2
1.627, 2.159e-2
1.628, 2.188e-2
1.629, 2.216e-2
1.630, 2.244e-2
1.631, 2.271e-2
1.632, 2.298e-2
1.633, 2.329e-2
1.634, 2.358e-2
1.635, 2.388e-2
1.636, 2.416e-2
1.637, 2.446e-2
1.638, 2.475e-2
1.639, 2.507e-2
1.640, 2.536e-2
1.641, 2.568e-2
1.642, 2.598e-2
1.643, 2.628e-2
1.644, 2.656e-2
1.645, 2.684e-2
1.646, 2.719e-2
1.647, 2.752e-2
1.648, 2.782e-2
1.649, 2.815e-2
1.650, 2.848e-2
1.651, 2.881e-2
1.652, 2.909e-2
1.653, 2.943e-2
1.654, 2.972e-2
1.655, 3.003e-2
1.656, 3.037e-2
1.657, 3.070e-2
1.658, 3.098e-2
1.659, 3.130e-2
1.660, 3.160e-2
1.661, 3.194e-2
1.662, 3.228e-2
1.663, 3.258e-2
1.664, 3.288e-2
1.665, 3.319e-2
1.666, 3.351e-2
1.667, 3.384e-2
1.668, 3.412e-2
1.669, 3.444e-2
1.670, 3.476e-2
1.671, 3.509e-2
1.672, 3.538e-2
1.673, 3.569e-2
1.674, 3.599e-2
1.675, 3.635e-2
1.676, 3.672e-2
1.677, 3.714e-2
1.678, 3.752e-2
1.679, 3.784e-2
1.680, 3.821e-2
1.681, 3.863e-2
1.682, 3.901e-2
1.683, 3.930e-2
1.684, 3.964e-2
1.685, 3.994e-2
1.686, 4.026e-2
1.687, 4.059e-2
1.688, 4.095e-2
1.689, 4.129e-2
1.690, 4.162e-2
1.691, 4.196e-2
1.692, 4.231e-2
1.693, 4.263e-2
1.694, 4.294e-2
1.695, 4.327e-2
1.696, 4.361e-2
1.697, 4.398e-2
1.698, 4.433e-2
1.699, 4.471e-2
1.700, 4.507e-2
1.701, 4.545e-2
1.702, 4.586e-2
1.703, 4.617e-2
1.704, 4.646e-2
1.705, 4.669e-2
1.706, 4.702e-2
1.707, 4.731e-2
1.708, 4.766e-2
1.709, 4.811e-2
1.710, 4.848e-2
1.711, 4.874e-2
1.712, 4.907e-2
1.713, 4.938e-2
1.714, 4.970e-2
1.715, 5.006e-2
1.716, 5.036e-2
1.717, 5.076e-2
1.718, 5.108e-2
1.719, 5.152e-2
1.720, 5.182e-2
1.721, 5.216e-2
1.722, 5.251e-2
1.723, 5.278e-2
1.724, 5.309e-2
1.725, 5.343e-2
1.726, 5.373e-2
1.727, 5.405e-2
1.728, 5.437e-2
1.729, 5.468e-2
1.730, 5.492e-2
1.731, 5.533e-2
1.732, 5.563e-2
1.733, 5.589e-2
1.734, 5.633e-2
1.735, 5.678e-2
1.736, 5.706e-2
1.737, 5.732e-2
1.738, 5.771e-2
1.739, 5.806e-2
1.740, 5.834e-2
1.741, 5.862e-2
1.742, 5.886e-2
1.743, 5.913e-2
1.744, 5.942e-2
1.745, 5.970e-2
1.746, 6.005e-2
1.747, 6.036e-2
1.748, 6.092e-2
1.749, 6.142e-2
1.750, 6.169e-2
1.751, 6.198e-2
1.752, 6.220e-2
1.753, 6.242e-2
1.754, 6.271e-2
1.755, 6.304e-2
1.756, 6.331e-2
1.757, 6.362e-2
1.758, 6.382e-2
1.759, 6.410e-2
1.760, 6.460e-2
1.761, 6.485e-2
1.762, 6.526e-2
1.763, 6.569e-2
1.764, 6.583e-2
1.765, 6.606e-2
1.766, 6.627e-2
1.767, 6.653e-2
1.768, 6.677e-2
1.769, 6.697e-2
1.770, 6.720e-2
1.771, 6.763e-2
1.772, 6.800e-2
1.773, 6.824e-2
1.774, 6.861e-2
1.775, 6.900e-2
1.776, 6.931e-2
1.777, 6.968e-2
1.778, 7.001e-2
1.779, 7.018e-2
1.780, 7.038e-2
1.781, 7.060e-2
1.782, 7.094e-2
1.783, 7.125e-2
1.784, 7.154e-2
1.785, 7.182e-2
1.786, 7.200e-2
1.787, 7.237e-2
1.788, 7.264e-2
1.789, 7.271e-2
1.790, 7.300e-2
1.791, 7.323e-2
1.792, 7.351e-2
1.793, 7.387e-2
1.794, 7.430e-2
1.795, 7.449e-2
1.796, 7.463e-2
1.797, 7.481e-2
1.798, 7.506e-2
1.799, 7.550e-2
1.800, 7.566e-2
1.801, 7.595e-2
1.802, 7.625e-2
1.803, 7.645e-2
1.804, 7.659e-2
1.805, 7.686e-2
1.806, 7.742e-2
1.807, 7.745e-2
1.808, 7.755e-2
1.809, 7.773e-2
1.810, 7.816e-2
1.811, 7.850e-2
1.812, 7.863e-2
1.813, 7.877e-2
1.814, 7.884e-2
1.815, 7.908e-2
1.816, 7.925e-2
1.817, 7.943e-2
1.818, 7.965e-2
1.819, 7.990e-2
1.820, 8.034e-2
1.821, 8.075e-2
1.822, 8.090e-2
1.823, 8.100e-2
1.824, 8.108e-2
1.825, 8.147e-2
1.826, 8.166e-2
1.827, 8.199e-2
1.828, 8.222e-2
1.829, 8.234e-2
1.830, 8.264e-2
1.831, 8.292e-2
1.832, 8.296e-2
1.833, 8.304e-2
1.834, 8.330e-2
1.835, 8.361e-2
1.836, 8.366e-2
1.837, 8.377e-2
1.838, 8.389e-2
1.839, 8.410e-2
1.840, 8.449e-2
1.841, 8.486e-2
1.842, 8.502e-2
1.843, 8.508e-2
1.844, 8.525e-2
1.845, 8.530e-2
1.846, 8.558e-2
1.847, 8.588e-2
1.848, 8.599e-2
1.849, 8.630e-2
1.850, 8.650e-2
1.851, 8.651e-2
1.852, 8.674e-2
1.853, 8.694e-2
1.854, 8.712e-2
1.855, 8.737e-2
1.856, 8.759e-2
1.857, 8.767e-2
1.858, 8.792e-2
1.859, 8.827e-2
1.860, 8.834e-2
1.861, 8.835e-2
1.862, 8.856e-2
1.863, 8.861e-2
1.864, 8.870e-2
1.865, 8.868e-2
1.866, 8.905e-2
1.867, 8.926e-2
1.868, 8.953e-2
1.869, 8.965e-2
1.870, 8.967e-2
1.871, 8.986e-2
1.872, 9.032e-2
1.873, 9.052e-2
1.874, 9.057e-2
1.875, 9.073e-2
1.876, 9.082e-2
1.877, 9.115e-2
1.878, 9.125e-2
1.879, 9.119e-2
1.880, 9.126e-2
1.881, 9.154e-2
1.882, 9.159e-2
1.883, 9.173e-2
1.884, 9.188e-2
1.885, 9.197e-2
1.886, 9.235e-2
1.887, 9.252e-2
1.888, 9.260e-2
1.889, 9.272e-2
1.890, 9.261e-2
1.891, 9.269e-2
1.892, 9.278e-2
1.893, 9.291e-2
1.894, 9.320e-2
1.895, 9.323e-2
1.896, 9.341e-2
1.897, 9.343e-2
1.898, 9.364e-2
1.899, 9.362e-2
1.900, 9.377e-2
1.901, 9.390e-2
1.902, 9.418e-2
1.903, 9.436e-2
1.904, 9.446e-2
1.905, 9.451e-2
1.906, 9.446e-2
1.907, 9.450e-2
1.908, 9.457e-2
1.909, 9.479e-2
1.910, 9.485e-2
1.911, 9.537e-2
1.912, 9.528e-2
1.913, 9.544e-2
1.914, 9.542e-2
1.915, 9.541e-2
1.916, 9.559e-2
1.917, 9.556e-2
1.918, 9.560e-2
1.919, 9.565e-2
