Ewe/V	<I>/mA	
1.3596312E+000	0.000000000000000E+000
1.3586417E+000	0.000000000000000E+000
1.2308753E+000	-1.502043454987664E+001
1.2327154E+000	-2.252271089284562E+000
1.2360672E+000	-3.332997530044284E-001
1.2393979E+000	-1.128643117553441E-001
1.2427200E+000	-2.669678122550456E-002
1.2460597E+000	2.097636406147557E-002
1.2493837E+000	5.222040253558102E-002
1.2527211E+000	7.386955701983960E-002
1.2560394E+000	9.113353350714437E-002
1.2593989E+000	1.053793747735012E-001
1.2627237E+000	1.154730103448824E-001
1.2660612E+000	1.247363568544906E-001
1.2693911E+000	1.317893723484168E-001
1.2727156E+000	1.381582561843242E-001
1.2760375E+000	1.449553264791832E-001
1.2793670E+000	1.494984831214832E-001
1.2827061E+000	1.538537428457670E-001
1.2860368E+000	1.580309576915500E-001
1.2893715E+000	1.613746631784365E-001
1.2927113E+000	1.649286290200103E-001
1.2960432E+000	1.678842498135111E-001
1.2993869E+000	1.702645165576251E-001
1.3027128E+000	1.727494702271808E-001
1.3060633E+000	1.745706440183010E-001
1.3093876E+000	1.769889651869154E-001
1.3127232E+000	1.788294500996821E-001
1.3160273E+000	1.805781829331217E-001
1.3193963E+000	1.824967771005248E-001
1.3227055E+000	1.847181519570165E-001
1.3260611E+000	1.855938778955712E-001
1.3293734E+000	1.874917240781611E-001
1.3327273E+000	1.893471276363488E-001
1.3360611E+000	1.911261390711521E-001
1.3393844E+000	1.928816588899733E-001
1.3427113E+000	1.949163942237166E-001
1.3460436E+000	1.968382095384458E-001
1.3493613E+000	1.991411191125927E-001
1.3527079E+000	2.025410218498453E-001
1.3560448E+000	2.050649366884112E-001
1.3593800E+000	2.084435286884911E-001
1.3627187E+000	2.122294497596977E-001
1.3660703E+000	2.164257634050644E-001
1.3693986E+000	2.208129878797451E-001
1.3727237E+000	2.261923576987284E-001
1.3760780E+000	2.333073386145665E-001
1.3794104E+000	2.406259279457981E-001
1.3827581E+000	2.501230735842048E-001
1.3860816E+000	2.612706646602132E-001
1.3894230E+000	2.745120813296409E-001
1.3927450E+000	2.908042759589371E-001
1.3960842E+000	3.102344863401054E-001
1.3994054E+000	3.346809675959781E-001
1.4027259E+000	3.653633386118909E-001
1.4060568E+000	4.025976682625629E-001
1.4093702E+000	4.489034333142108E-001
1.4127102E+000	5.046843348479517E-001
1.4160309E+000	5.736270927447400E-001
1.4193592E+000	6.577141646836679E-001
1.4226888E+000	7.575930929036425E-001
1.4260160E+000	8.772824621132873E-001
1.4294003E+000	1.026184795720464E+000
1.4327520E+000	1.190960012011175E+000
1.4360651E+000	1.385480235316411E+000
1.4393934E+000	1.608362691823315E+000
1.4427214E+000	1.861672090277924E+000
1.4460547E+000	2.146725879431926E+000
1.4493768E+000	2.464740611350599E+000
1.4527352E+000	2.817453903311741E+000
1.4560494E+000	3.204152793425314E+000
1.4593765E+000	3.622923048222084E+000
1.4627181E+000	4.076811295018018E+000
1.4660571E+000	4.562816965886356E+000
1.4693934E+000	5.083390559295836E+000
1.4727384E+000	5.636965228106199E+000
1.4760677E+000	6.216353712042448E+000
1.4793761E+000	6.828374700015829E+000
1.4827046E+000	7.468727015306911E+000
1.4860258E+000	8.138755104461779E+000
1.4893717E+000	8.837123020789086E+000
1.4926972E+000	9.560148408100801E+000
1.4960245E+000	1.030865401477068E+001
1.4994028E+000	1.110507116557887E+001
1.5027227E+000	1.191351432169608E+001
1.5060705E+000	1.273747571504379E+001
1.5094091E+000	1.358448155666940E+001
1.5127603E+000	1.445399252747228E+001
1.5160780E+000	1.534415577303554E+001
1.5194366E+000	1.625024080295128E+001
1.5227575E+000	1.717635865727289E+001
1.5260906E+000	1.812029630912375E+001
1.5294205E+000	1.908135022365153E+001
1.5327594E+000	2.006150443050532E+001
1.5360758E+000	2.105654508008593E+001
1.5394191E+000	2.206932568219526E+001
1.5427475E+000	2.309906276046854E+001
1.5460638E+000	2.413668940483871E+001
1.5494086E+000	2.519678709008231E+001
1.5527364E+000	2.626719543899060E+001
1.5560693E+000	2.735414978380055E+001
1.5594069E+000	2.845806389712197E+001
1.5627357E+000	2.956648691323073E+001
1.5660590E+000	3.069133157544724E+001
1.5694070E+000	3.183341347137753E+001
1.5727348E+000	3.297970285757833E+001
1.5760748E+000	3.413914619472735E+001
1.5794185E+000	3.531086643666430E+001
1.5827340E+000	3.649097773103142E+001
1.5860872E+000	3.768339856907289E+001
1.5894257E+000	3.888172983901956E+001
1.5927407E+000	4.008580275328904E+001
1.5960659E+000	4.129622673689441E+001
1.5994167E+000	4.253103287594820E+001
1.6027215E+000	4.377194571158805E+001
1.6060666E+000	4.502517339124141E+001
1.6094091E+000	4.627402202514077E+001
1.6127400E+000	4.753565208317197E+001
1.6160827E+000	4.880991990402185E+001
1.6194117E+000	5.009349218044849E+001
1.6227571E+000	5.138772898838664E+001
1.6260775E+000	5.268746050574043E+001
1.6294179E+000	5.399311549315257E+001
1.6327512E+000	5.530839044094455E+001
1.6360941E+000	5.663055303356907E+001
1.6394005E+000	5.796391879031887E+001
1.6427717E+000	5.928967543458475E+001
1.6460885E+000	6.062854578803160E+001
1.6494141E+000	6.198589604220649E+001
1.6527566E+000	6.334911306932659E+001
1.6560988E+000	6.471958005525835E+001
1.6594265E+000	6.610447142624844E+001
1.6627491E+000	6.748010533287220E+001
1.6661019E+000	6.886842179527548E+001
1.6694105E+000	7.026273493533779E+001
1.6727530E+000	7.162111563827284E+001
1.6761045E+000	7.302273349351367E+001
1.6794070E+000	7.442754348349756E+001
1.6827565E+000	7.584791588071768E+001
1.6860902E+000	7.727459753254584E+001
1.6894319E+000	7.869218147947868E+001
1.6927670E+000	8.012864903404579E+001
1.6960959E+000	8.157649500242155E+001
1.6994250E+000	8.299515375218243E+001
1.7027594E+000	8.443804250931692E+001
1.7061156E+000	8.590128410047737E+001
1.7094665E+000	8.736518025655749E+001
1.7128013E+000	8.883905066421576E+001
1.7161142E+000	9.032379787145032E+001
1.7194595E+000	9.176756081786698E+001
1.7227881E+000	9.324047249240652E+001
1.7261325E+000	9.471335330115153E+001
1.7294770E+000	9.619790033578283E+001
1.7328167E+000	9.769525317848661E+001
1.7361274E+000	9.921089694006309E+001
1.7394614E+000	1.007296851492840E+002
1.7428067E+000	1.022072773017992E+002
1.7461592E+000	1.036926123752663E+002
1.7494844E+000	1.051689651453660E+002
1.7527943E+000	1.066903011956155E+002
1.7561300E+000	1.082177668770789E+002
1.7594721E+000	1.097917755339179E+002
1.7628523E+000	1.114954091692946E+002
1.7661735E+000	1.130155105321672E+002
1.7695318E+000	1.145191549271394E+002
1.7728635E+000	1.160373323353547E+002
1.7761898E+000	1.175742872414816E+002
1.7795253E+000	1.191431533328632E+002
1.7828745E+000	1.206607190056916E+002
1.7862095E+000	1.222318493938383E+002
1.7895492E+000	1.237219369327272E+002
1.7928677E+000	1.253027869838215E+002
1.7962091E+000	1.268847221466644E+002
1.7995524E+000	1.284585401578029E+002
1.8028876E+000	1.299568037844360E+002
1.8062085E+000	1.314965359509262E+002
1.8095382E+000	1.330807820679620E+002
1.8128937E+000	1.346776532205849E+002
1.8162148E+000	1.362062240838297E+002
1.8195599E+000	1.378940560458614E+002
1.8228887E+000	1.394903829299728E+002
1.8262028E+000	1.410111575390993E+002
1.8295583E+000	1.426323990614296E+002
1.8328812E+000	1.442096918575894E+002
1.8362072E+000	1.457762346173786E+002
1.8395609E+000	1.473438052704209E+002
1.8428930E+000	1.489451567368249E+002
1.8462234E+000	1.505350658525778E+002
1.8490562E+000	1.519252200758112E+002
1.8504392E+000	1.525646718343096E+002