Ewe/V	<I>/mA	
1.3816539E+000	0.000000000000000E+000
1.3788233E+000	0.000000000000000E+000
1.2309134E+000	-1.855146580083030E+001
1.2328857E+000	-2.688332346500694E+000
1.2364037E+000	-4.528533672605537E-001
1.2397600E+000	-2.083651526967740E-001
1.2430519E+000	-1.041709667012216E-001
1.2463760E+000	-4.333727904300422E-002
1.2496953E+000	-2.165550102300604E-003
1.2530295E+000	2.767386770030100E-002
1.2563795E+000	5.116779357532610E-002
1.2597082E+000	7.033877374016018E-002
1.2630541E+000	8.560020935215906E-002
1.2663841E+000	9.864695120698941E-002
1.2697116E+000	1.098715458871542E-001
1.2730459E+000	1.194383745802499E-001
1.2763933E+000	1.274930657296369E-001
1.2797210E+000	1.351784435821568E-001
1.2830584E+000	1.406348842431098E-001
1.2863742E+000	1.458685346572555E-001
1.2896825E+000	1.512701090846316E-001
1.2930524E+000	1.556537155094880E-001
1.2963737E+000	1.601422038026112E-001
1.2996989E+000	1.640222664284563E-001
1.3030409E+000	1.674904987504598E-001
1.3063806E+000	1.706635170830650E-001
1.3097203E+000	1.725669766945881E-001
1.3130410E+000	1.755517432070243E-001
1.3163751E+000	1.782626392821580E-001
1.3197272E+000	1.804855070028997E-001
1.3230399E+000	1.836052968439365E-001
1.3263819E+000	1.849886480917548E-001
1.3297077E+000	1.870049291045190E-001
1.3330498E+000	1.899270408657442E-001
1.3363825E+000	1.925543099342873E-001
1.3397059E+000	1.953359965046031E-001
1.3430499E+000	1.973239612301697E-001
1.3464029E+000	2.000016709887816E-001
1.3497264E+000	2.027359779739282E-001
1.3530486E+000	2.055578325986294E-001
1.3563799E+000	2.097986560386511E-001
1.3597158E+000	2.129668622544330E-001
1.3630623E+000	2.178192885085447E-001
1.3663785E+000	2.218894160650438E-001
1.3697355E+000	2.269629022999653E-001
1.3730824E+000	2.324837640843187E-001
1.3763976E+000	2.396353521112662E-001
1.3797300E+000	2.473648009970226E-001
1.3830737E+000	2.571324742485746E-001
1.3864121E+000	2.698525975076160E-001
1.3897446E+000	2.831175552148735E-001
1.3930894E+000	3.002980297063975E-001
1.3964208E+000	3.210789822333808E-001
1.3997419E+000	3.472941760992914E-001
1.4030634E+000	3.800484940252025E-001
1.4064008E+000	4.189632800074321E-001
1.4097298E+000	4.692649435337426E-001
1.4130448E+000	5.292242739613608E-001
1.4163668E+000	6.021135609291655E-001
1.4196988E+000	6.917971576573034E-001
1.4230261E+000	7.975293407695394E-001
1.4263494E+000	9.253826650001775E-001
1.4297426E+000	1.080434592983398E+000
1.4330641E+000	1.253977264094914E+000
1.4364020E+000	1.456497166111697E+000
1.4397347E+000	1.688303409033612E+000
1.4430780E+000	1.950265576678810E+000
1.4463824E+000	2.244831015167421E+000
1.4497277E+000	2.571366610406677E+000
1.4530588E+000	2.932409335137486E+000
1.4564152E+000	3.326049583243440E+000
1.4597139E+000	3.751097129683608E+000
1.4630630E+000	4.210423054506762E+000
1.4663663E+000	4.700696329314425E+000
1.4697160E+000	5.224350444885206E+000
1.4730561E+000	5.779301230462764E+000
1.4763751E+000	6.363148801685696E+000
1.4796971E+000	6.976219345894464E+000
1.4830264E+000	7.616598591808359E+000
1.4863539E+000	8.282053181761242E+000
1.4896965E+000	8.974991084581546E+000
1.4930062E+000	9.695040691522337E+000
1.4963543E+000	1.043890161563758E+001
1.4997363E+000	1.123476522817177E+001
1.5030663E+000	1.202870304965288E+001
1.5064148E+000	1.284254565027500E+001
1.5097543E+000	1.368104216554900E+001
1.5130824E+000	1.454098008016479E+001
1.5164254E+000	1.542249143213988E+001
1.5197639E+000	1.631689841469886E+001
1.5230886E+000	1.723432681557665E+001
1.5264205E+000	1.816934467106057E+001
1.5297588E+000	1.912073018962667E+001
1.5330906E+000	2.008894570887745E+001
1.5364099E+000	2.107530174738957E+001
1.5397648E+000	2.207808429177476E+001
1.5430797E+000	2.308469351436352E+001
1.5463978E+000	2.411233120465236E+001
1.5497533E+000	2.515886991977078E+001
1.5530654E+000	2.621956330490423E+001
1.5564160E+000	2.729467819140575E+001
1.5597408E+000	2.838299104611508E+001
1.5630714E+000	2.948200642936288E+001
1.5663955E+000	3.059484962316014E+001
1.5697253E+000	3.171868208602041E+001
1.5730652E+000	3.285536346372510E+001
1.5763940E+000	3.400091805998670E+001
1.5797368E+000	3.516233087132335E+001
1.5830649E+000	3.633141697539646E+001
1.5863975E+000	3.751764612966559E+001
1.5897397E+000	3.870936814433514E+001
1.5930827E+000	3.991269798392216E+001
1.5963995E+000	4.112440076204740E+001
1.5997599E+000	4.234462452860669E+001
1.6030877E+000	4.357382713039669E+001
1.6064076E+000	4.479893366201259E+001
1.6097430E+000	4.604069458076270E+001
1.6130677E+000	4.729542047607185E+001
1.6164056E+000	4.856557606628382E+001
1.6197512E+000	4.985821807162199E+001
1.6231005E+000	5.115344738444946E+001
1.6264175E+000	5.244090390961492E+001
1.6297576E+000	5.374063410896008E+001
1.6330872E+000	5.504408527273176E+001
1.6364108E+000	5.635122216558193E+001
1.6397347E+000	5.767575875282290E+001
1.6430832E+000	5.900510762647340E+001
1.6464384E+000	6.033871392048093E+001
1.6497684E+000	6.168188571709516E+001
1.6530923E+000	6.304042593456370E+001
1.6564350E+000	6.439193416853323E+001
1.6597526E+000	6.578352348345301E+001
1.6630906E+000	6.717059437597698E+001
1.6664282E+000	6.854812112542731E+001
1.6697633E+000	6.994198581228937E+001
1.6731035E+000	7.133417050303183E+001
1.6764401E+000	7.273227112570623E+001
1.6797626E+000	7.413218125006438E+001
1.6830941E+000	7.554693325193898E+001
1.6864461E+000	7.697165660199401E+001
1.6897721E+000	7.839448401353400E+001
1.6930950E+000	7.983499705141503E+001
1.6964293E+000	8.125746087490427E+001
1.6997614E+000	8.267432559310498E+001
1.7031094E+000	8.412072283665543E+001
1.7064737E+000	8.558031614043011E+001
1.7098080E+000	8.702671891138419E+001
1.7131338E+000	8.849595740675261E+001
1.7164570E+000	8.997248768413033E+001
1.7197847E+000	9.145489776810473E+001
1.7231240E+000	9.290182320729184E+001
1.7264607E+000	9.437452704987422E+001
1.7298162E+000	9.586261681536604E+001
1.7331263E+000	9.734485720640237E+001
1.7364815E+000	9.883746822136436E+001
1.7398050E+000	1.003058499190952E+002
1.7431369E+000	1.017789942985169E+002
1.7464577E+000	1.033187998772521E+002
1.7498022E+000	1.048442326159338E+002
1.7531197E+000	1.063548445516601E+002
1.7564737E+000	1.078352628335592E+002
1.7597991E+000	1.093640888604996E+002
1.7631856E+000	1.110625627394471E+002
1.7665260E+000	1.125378701104746E+002
1.7698864E+000	1.140810207026157E+002
1.7732135E+000	1.155900852704995E+002
1.7765396E+000	1.171223429503229E+002
1.7798792E+000	1.187115006167888E+002
1.7832124E+000	1.202477585803471E+002
1.7865317E+000	1.217815542037615E+002
1.7898747E+000	1.233384738518241E+002
1.7932018E+000	1.249236662505691E+002
1.7965291E+000	1.264753094514818E+002
1.7998805E+000	1.280418979905794E+002
1.8032001E+000	1.295902540268165E+002
1.8065422E+000	1.312171470133175E+002
1.8098774E+000	1.328536859100304E+002
1.8132310E+000	1.344595079030428E+002
1.8165501E+000	1.359863676419504E+002
1.8198810E+000	1.375720509292296E+002
1.8232038E+000	1.391736046405576E+002
1.8265488E+000	1.407749638978576E+002
1.8298858E+000	1.424026190101943E+002
1.8332452E+000	1.440175920850908E+002
1.8365592E+000	1.455050008333496E+002
1.8399110E+000	1.471955387690218E+002
1.8432543E+000	1.488530366464565E+002
1.8465782E+000	1.504160107843772E+002
1.8492365E+000	1.517477693747064E+002
1.8503743E+000	1.523190309312608E+002